-0.045
-0.025
-0.005
0.015
0.055
0.085
0.125
0.145
0.185
0.225
0.235
0.235
0.235
0.235
0.185
0.105
0.035
-0.015
-0.055
-0.085
-0.105
-0.115
-0.135
-0.125
-0.135
-0.115
-0.115
-0.135
-0.095
0.155
0.545
0.425
-0.305
-0.435
-0.455
-0.195
0.015
0.055
0.015
-0.025
-0.035
-0.055
-0.085
-0.095
-0.085
-0.095
-0.105
-0.105
-0.105
-0.105
-0.115
-0.115
-0.085
-0.065
-0.045
-0.005
0.015
0.055
0.075
0.115
0.165
0.195
0.205
0.215
0.225
0.185
0.125
0.065
0.015
-0.015
-0.045
-0.085
-0.085
-0.115
-0.115
-0.125
-0.125
-0.115
-0.115
-0.095
0.135
0.505
0.525
-0.185
-0.455
-0.535
-0.415
-0.165
-0.025
0.005
-0.025
-0.065
-0.075
-0.085
-0.105
-0.115
-0.115
-0.135
-0.115
-0.135
-0.125
-0.125
-0.135
-0.125
-0.115
-0.045
0.015
0.055
0.095
0.115
0.115
0.115
0.135
0.165
0.185
0.145
0.135
0.095
0.065
0.015
-0.025
-0.055
-0.075
-0.085
-0.075
-0.075
-0.075
-0.065
-0.045
-0.025
-0.025
0.005
0.015
0.015
0.025
0.015
0.015
-0.005
-0.035
-0.055
-0.055
-0.055
-0.055
-0.045
-0.055
-0.065
0.075
0.305
0.415
-0.035
-0.265
-0.235
-0.255
-0.155
-0.065
-0.015
0.005
0.015
0.025
0.045
0.055
0.055
0.045
0.055
0.075
0.085
0.075
0.065
0.055
0.055
0.045
0.045
0.045
0.055
0.065
0.055
0.065
0.065
0.065
0.055
0.075
0.105
0.115
0.105
0.095
0.065
0.045
0.035
-0.005
-0.005
0.015
0.015
0.025
0.005
-0.015
-0.025
-0.025
-0.035
-0.055
-0.065
-0.075
-0.095
-0.085
-0.085
-0.085
-0.075
-0.095
-0.115
-0.115
-0.135
-0.105
-0.105
-0.085
-0.065
-0.015
0.005
-0.035
-0.035
-0.045
-0.065
-0.065
-0.065
-0.075
-0.075
-0.085
-0.065
-0.065
-0.065
-0.105
0.005
0.255
0.615
0.495
-0.305
-0.425
-0.465
-0.445
-0.255
-0.075
0.005
-0.005
-0.025
-0.025
-0.035
-0.035
-0.035
-0.045
-0.035
-0.055
-0.055
-0.045
-0.055
-0.055
-0.045
-0.045
-0.025
-0.025
-0.015
0.015
0.015
0.015
0.055
0.075
0.095
0.135
0.175
0.205
0.225
0.215
0.155
0.095
0.075
0.025
-0.005
-0.045
-0.065
-0.075
-0.085
-0.095
-0.105
-0.105
-0.105
-0.115
-0.125
-0.115
-0.105
-0.105
-0.085
-0.065
-0.055
-0.035
-0.055
-0.055
-0.055
-0.035
-0.015
-0.035
-0.065
-0.045
-0.055
-0.055
-0.075
-0.065
-0.125
-0.055
0.285
0.695
0.275
-0.395
-0.575
-0.535
-0.295
-0.155
-0.105
-0.095
-0.115
-0.105
-0.055
-0.025
0.005
-0.015
-0.015
-0.025
-0.035
-0.025
-0.025
-0.035
-0.045
-0.045
-0.045
-0.025
-0.015
0.025
0.015
0.015
0.035
0.055
0.075
0.095
0.145
0.175
0.165
0.135
0.095
0.035
0.005
-0.035
-0.065
-0.085
-0.115
-0.115
-0.125
-0.125
-0.125
-0.135
-0.135
-0.135
-0.125
-0.135
-0.105
-0.085
-0.065
-0.045
-0.025
0.005
-0.005
-0.015
-0.025
-0.045
-0.055
-0.055
-0.085
-0.095
-0.115
-0.125
-0.115
-0.105
-0.105
-0.115
-0.125
-0.115
-0.145
-0.005
0.355
0.715
0.245
-0.375
-0.465
-0.375
-0.165
-0.055
-0.035
-0.045
-0.055
-0.055
-0.085
-0.095
-0.095
-0.085
-0.075
-0.085
-0.085
-0.085
-0.095
-0.095
-0.065
-0.055
-0.025
0.025
0.045
0.065
0.085
0.135
0.145
0.145
0.145
0.145
0.145
0.135
0.105
0.075
0.045
0.015
-0.015
-0.055
-0.085
-0.095
-0.135
-0.125
-0.125
-0.115
-0.095
-0.085
-0.075
-0.045
-0.015
0.015
-0.005
0.155
0.475
0.695
-0.165
-0.685
-0.785
-0.515
-0.215
-0.105
-0.115
-0.135
-0.145
-0.145
-0.135
-0.125
-0.105
-0.085
-0.075
-0.035
-0.005
0.025
0.015
0.015
0.005
-0.005
0.005
0.005
0.005
-0.005
0.015
0.035
0.035
0.055
0.065
0.085
0.095
0.105
0.085
0.085
0.055
0.005
-0.005
0.005
0.005
-0.025
-0.055
-0.065
-0.075
-0.095
-0.105
-0.105
-0.095
-0.105
-0.115
-0.105
-0.105
-0.125
-0.125
-0.125
-0.115
-0.115
-0.115
-0.095
-0.065
-0.025
-0.025
-0.055
-0.085
-0.105
-0.115
-0.125
-0.135
-0.115
-0.115
-0.135
-0.145
-0.145
-0.145
-0.135
-0.145
0.075
0.485
0.645
-0.065
-0.435
-0.535
-0.395
-0.185
-0.075
-0.075
-0.075
-0.105
-0.115
-0.125
-0.155
-0.145
-0.125
-0.135
-0.135
-0.135
-0.135
-0.135
-0.105
-0.095
-0.025
0.015
0.025
0.035
0.035
0.025
0.045
0.045
0.065
0.075
0.085
0.075
0.105
0.105
0.095
0.025
0.025
-0.005
-0.035
-0.065
-0.115
-0.165
-0.155
-0.165
-0.175
-0.115
-0.095
-0.065
-0.095
-0.125
-0.135
-0.145
-0.145
-0.125
-0.135
-0.135
-0.155
-0.165
-0.135
-0.145
-0.135
-0.145
-0.145
-0.165
-0.175
-0.175
-0.145
-0.145
-0.145
-0.115
-0.055
-0.055
-0.045
-0.075
-0.075
-0.115
-0.025
0.295
0.595
0.175
-0.435
-0.385
-0.435
-0.405
-0.255
-0.115
-0.095
-0.115
-0.115
-0.125
-0.115
-0.115
-0.105
-0.055
-0.015
-0.005
-0.025
-0.015
-0.015
-0.005
-0.005
-0.025
-0.035
-0.025
-0.015
0.005
0.025
0.025
0.045
0.075
0.095
0.115
0.115
0.095
0.075
0.065
0.035
0.015
-0.005
-0.005
-0.005
-0.005
0.005
0.005
-0.015
-0.015
-0.025
-0.055
-0.075
-0.105
-0.115
-0.125
-0.125
-0.135
-0.125
-0.125
-0.125
-0.125
-0.115
-0.125
-0.115
-0.115
-0.115
-0.095
-0.075
-0.065
-0.035
-0.005
0.015
0.005
-0.005
-0.015
-0.015
-0.055
0.025
0.285
0.675
0.495
-0.305
-0.485
-0.535
-0.375
-0.175
-0.095
-0.085
-0.085
-0.095
-0.095
-0.075
-0.075
-0.055
-0.045
-0.045
-0.025
-0.005
0.025
0.065
0.045
0.045
0.055
0.045
0.055
0.045
0.055
0.065
0.075
0.105
0.125
0.155
0.165
0.175
0.185
0.165
0.095
0.055
0.015
-0.005
-0.005
-0.005
-0.015
-0.015
-0.015
0.005
0.025
0.005
-0.015
-0.025
-0.035
-0.035
-0.055
-0.045
-0.035
-0.035
-0.055
-0.075
-0.075
-0.075
-0.095
-0.085
-0.075
-0.075
-0.075
-0.055
-0.035
-0.015
-0.025
0.155
0.515
0.765
0.235
-0.355
-0.455
-0.405
-0.205
-0.075
-0.045
-0.035
-0.055
-0.065
-0.065
-0.065
-0.055
-0.045
-0.035
-0.025
-0.005
0.015
0.015
0.045
0.075
0.105
0.105
0.105
0.115
0.105
0.095
0.105
0.105
0.115
0.125
0.135
0.145
0.155
0.135
0.105
0.075
0.065
0.025
0.005
-0.005
-0.005
0.005
0.035
0.045
0.065
0.045
0.035
0.005
-0.035
-0.065
-0.075
-0.105
-0.095
-0.095
-0.105
-0.105
-0.105
-0.105
-0.095
-0.105
-0.085
-0.065
-0.045
0.005
0.045
0.035
0.025
-0.005
0.005
0.025
0.025
0.025
-0.015
-0.045
-0.065
-0.105
-0.045
0.245
0.605
0.415
-0.305
-0.485
-0.495
-0.265
-0.075
-0.025
0.025
0.045
0.035
0.035
0.005
0.005
0.015
0.005
-0.005
-0.015
-0.005
-0.005
-0.015
-0.015
-0.015
-0.025
-0.025
-0.005
0.015
0.035
0.055
0.085
0.125
0.155
0.215
0.255
0.265
0.265
0.235
0.195
0.165
0.105
0.055
0.015
-0.005
-0.045
-0.075
-0.085
-0.095
-0.075
-0.075
-0.085
-0.085
-0.075
-0.085
-0.085
-0.045
-0.005
-0.005
-0.015
-0.025
-0.045
-0.045
-0.055
-0.055
-0.065
-0.075
-0.085
-0.095
-0.095
-0.105
-0.105
-0.095
-0.105
-0.105
-0.085
-0.075
-0.085
-0.085
-0.065
0.005
0.015
0.005
-0.015
-0.035
-0.045
-0.065
-0.085
-0.085
-0.095
-0.095
-0.105
-0.115
0.075
0.395
0.585
0.025
-0.465
-0.595
-0.515
-0.245
-0.095
-0.065
-0.065
-0.035
0.015
0.015
-0.005
-0.015
-0.025
-0.035
-0.055
-0.045
-0.045
-0.055
-0.055
-0.055
-0.055
-0.045
-0.055
-0.035
-0.005
0.015
0.015
0.035
0.065
0.085
0.125
0.175
0.225
0.235
0.205
0.155
0.095
0.055
0.005
-0.035
-0.075
-0.105
-0.115
-0.135
-0.145
-0.165
-0.175
-0.175
-0.165
-0.155
-0.155
-0.155
-0.145
-0.125
-0.125
-0.095
-0.065
-0.045
-0.015
-0.005
-0.035
-0.065
-0.105
-0.085
-0.085
-0.115
-0.115
-0.125
-0.125
-0.135
-0.125
-0.165
-0.085
0.205
0.495
0.085
-0.445
-0.415
-0.485
-0.315
-0.155
-0.045
-0.065
-0.085
-0.075
-0.065
-0.075
-0.085
-0.065
-0.075
-0.085
-0.075
-0.085
-0.105
-0.125
-0.105
-0.095
-0.095
-0.085
-0.065
-0.045
-0.035
-0.015
0.035
0.055
0.075
0.095
0.125
0.165
0.185
0.175
0.145
0.085
0.025
-0.015
-0.035
-0.065
-0.085
-0.135
-0.135
-0.125
-0.135
-0.155
-0.135
-0.155
-0.145
-0.135
-0.115
-0.115
-0.125
-0.135
-0.115
-0.115
-0.105
-0.095
-0.075
-0.055
-0.055
-0.065
-0.085
-0.085
-0.085
-0.095
-0.085
-0.105
-0.135
0.035
0.335
0.515
-0.105
-0.465
-0.435
-0.495
-0.335
-0.185
-0.105
-0.085
-0.075
-0.085
-0.055
-0.015
0.005
-0.005
-0.025
-0.035
-0.025
-0.035
-0.025
-0.025
-0.025
-0.035
-0.025
-0.025
-0.005
0.015
0.035
0.035
0.025
0.045
0.075
0.105
0.135
0.145
0.145
0.135
0.125
0.115
0.075
0.035
0.005
-0.025
-0.035
-0.055
-0.075
-0.085
-0.105
-0.115
-0.105
-0.105
-0.095
-0.105
-0.125
-0.135
-0.135
-0.135
-0.115
-0.115
-0.095
-0.075
-0.055
-0.035
-0.015
0.015
0.035
0.015
-0.005
-0.015
-0.035
-0.045
-0.055
-0.065
-0.085
-0.095
-0.085
-0.085
-0.075
-0.075
-0.075
-0.085
-0.105
-0.115
-0.105
-0.095
-0.095
-0.075
-0.065
-0.045
-0.045
-0.035
0.015
0.035
0.015
0.005
-0.005
-0.015
0.155
0.485
0.685
0.055
-0.445
-0.615
-0.455
-0.195
-0.095
-0.095
-0.105
-0.115
-0.115
-0.105
-0.105
-0.095
-0.075
-0.055
-0.025
-0.005
0.015
0.045
0.075
0.085
0.065
0.045
0.055
0.055
0.055
0.055
0.065
0.085
0.075
0.065
0.095
0.105
0.115
0.115
0.105
0.085
0.055
0.025
0.025
0.025
0.025
0.035
0.055
0.045
0.015
-0.015
-0.015
-0.035
-0.045
-0.035
-0.055
-0.065
-0.085
-0.105
-0.105
-0.085
-0.085
-0.095
-0.075
-0.065
-0.045
-0.035
0.005
0.035
0.015
-0.015
-0.035
-0.035
-0.045
-0.065
-0.045
-0.055
-0.065
-0.065
-0.075
-0.085
-0.095
-0.095
-0.075
-0.075
-0.055
0.175
0.555
0.705
0.025
-0.335
-0.455
-0.295
-0.085
-0.005
-0.005
-0.045
-0.075
-0.095
-0.095
-0.105
-0.115
-0.105
-0.105
-0.105
-0.095
-0.095
-0.085
-0.055
-0.035
0.005
0.035
0.095
0.125
0.095
0.095
0.105
0.115
0.135
0.125
0.135
0.135
0.135
0.135
0.115
0.085
0.045
0.015
-0.015
-0.045
-0.075
-0.085
-0.065
-0.055
-0.045
-0.025
-0.035
-0.035
-0.065
-0.065
-0.075
-0.085
-0.085
-0.095
-0.105
-0.115
-0.125
-0.115
-0.115
-0.105
-0.105
-0.095
-0.075
-0.055
-0.045
-0.035
0.005
-0.025
-0.015
-0.015
-0.035
-0.055
-0.055
-0.085
-0.085
-0.105
-0.105
-0.115
-0.125
-0.135
-0.145
-0.135
-0.125
-0.125
-0.105
-0.095
-0.095
-0.085
-0.055
0.005
0.015
-0.015
-0.005
-0.025
0.015
0.225
0.545
0.465
-0.215
-0.375
-0.525
-0.435
-0.245
-0.135
-0.125
-0.095
-0.115
-0.105
-0.075
-0.035
-0.055
-0.025
-0.045
-0.025
-0.035
0.005
-0.015
-0.025
-0.065
-0.055
-0.065
-0.065
-0.045
-0.045
-0.025
0.005
0.025
0.025
0.055
0.075
0.095
0.095
0.115
0.105
0.085
0.085
0.085
0.085
0.075
0.045
0.035
0.025
0.005
-0.015
-0.045
-0.065
-0.065
-0.085
-0.085
-0.105
-0.125
-0.135
-0.135
-0.125
-0.135
-0.135
-0.145
-0.115
-0.105
-0.095
-0.085
-0.075
-0.045
-0.005
0.045
0.035
0.005
-0.005
-0.025
-0.015
-0.025
-0.045
-0.045
-0.075
-0.085
-0.095
-0.115
-0.085
-0.105
0.105
0.505
0.685
-0.035
-0.455
-0.525
-0.505
-0.285
-0.115
-0.045
-0.005
0.025
0.055
0.025
0.025
0.015
-0.015
-0.055
-0.025
-0.025
-0.045
-0.045
0.005
0.005
0.005
0.005
0.005
0.015
0.035
0.025
0.045
0.065
0.095
0.125
0.135
0.145
0.185
0.185
0.195
0.175
0.175
0.165
0.105
0.055
0.015
-0.015
-0.045
-0.025
-0.035
-0.055
-0.065
-0.075
-0.095
-0.105
-0.105
-0.105
-0.105
-0.105
-0.095
-0.115
-0.095
-0.095
-0.075
-0.045
-0.025
-0.025
-0.035
-0.015
0.015
0.005
0.005
-0.005
-0.025
-0.005
-0.015
-0.025
-0.035
-0.045
-0.035
-0.045
-0.065
-0.045
-0.055
-0.065
-0.035
-0.055
-0.035
-0.025
-0.005
0.225
0.675
0.775
0.035
-0.395
-0.525
-0.325
-0.135
-0.075
-0.085
-0.095
-0.105
-0.125
-0.115
-0.115
-0.115
-0.105
-0.105
-0.105
-0.095
-0.075
-0.045
-0.035
-0.015
0.025
0.075
0.115
0.125
0.125
0.135
0.105
0.095
0.085
0.075
0.065
0.065
0.045
0.055
0.065
0.025
-0.015
-0.035
-0.055
-0.065
-0.065
-0.055
-0.025
-0.015
-0.025
-0.045
-0.045
-0.065
-0.065
-0.065
-0.055
-0.055
-0.055
-0.065
-0.095
-0.135
-0.145
-0.145
-0.135
-0.135
-0.125
0.115
0.475
0.555
-0.235
-0.505
-0.515
-0.315
-0.125
-0.035
-0.035
-0.065
-0.075
-0.075
-0.075
-0.085
-0.035
-0.055
-0.095
-0.115
-0.115
-0.095
-0.105
-0.085
-0.065
-0.065
-0.045
-0.025
-0.005
0.035
0.085
0.135
0.125
0.115
0.115
0.125
0.145
0.165
0.165
0.135
0.055
0.005
-0.035
-0.055
-0.115
-0.105
-0.115
-0.115
-0.115
-0.125
-0.115
-0.095
-0.085
-0.045
-0.035
-0.025
-0.015
-0.045
-0.075
-0.015
0.255
0.575
-0.035
-0.575
-0.675
-0.525
-0.235
-0.095
-0.075
-0.085
-0.075
-0.085
-0.065
-0.035
-0.005
-0.005
-0.005
-0.015
-0.055
-0.015
-0.005
-0.025
-0.045
-0.065
-0.075
-0.045
-0.035
-0.045
-0.035
-0.025
0.005
0.005
0.025
0.055
0.065
0.095
0.125
0.105
0.105
0.085
0.055
0.055
0.065
0.045
0.015
-0.015
-0.035
-0.035
-0.075
-0.075
-0.085
-0.105
-0.095
-0.135
-0.135
-0.105
-0.105
-0.135
-0.145
-0.115
-0.135
-0.135
-0.055
-0.045
-0.025
-0.005
0.015
0.025
-0.005
-0.025
-0.015
-0.015
-0.055
-0.085
-0.055
-0.095
-0.075
-0.095
-0.105
-0.095
-0.095
-0.125
-0.105
-0.075
-0.115
-0.105
-0.095
-0.085
-0.075
-0.065
-0.025
0.015
0.005
-0.015
0.015
-0.025
-0.015
-0.025
-0.035
-0.045
-0.045
0.105
0.425
0.635
0.035
-0.515
-0.595
-0.565
-0.315
-0.185
-0.105
-0.095
-0.125
-0.095
-0.095
-0.055
-0.025
-0.045
-0.035
-0.015
-0.005
0.025
0.075
0.065
0.075
0.055
0.055
0.035
0.015
0.005
-0.005
0.015
0.025
-0.015
0.035
0.025
0.015
0.065
0.035
0.065
0.075
0.055
0.045
0.015
-0.005
0.005
0.015
0.005
0.025
0.005
0.015
-0.045
-0.065
-0.095
-0.095
-0.095
-0.125
-0.155
-0.165
-0.165
-0.175
-0.175
-0.175
-0.185
-0.195
-0.205
-0.165
-0.145
-0.155
-0.135
-0.075
-0.045
-0.105
-0.145
-0.135
-0.165
-0.195
-0.195
-0.215
-0.225
-0.215
-0.235
-0.235
-0.235
-0.245
-0.245
-0.225
-0.215
-0.215
-0.205
-0.195
-0.185
-0.175
-0.125
-0.095
-0.085
-0.095
-0.115
-0.135
0.025
0.315
0.455
-0.225
-0.605
-0.695
-0.625
-0.365
-0.215
-0.195
-0.225
-0.215
-0.195
-0.185
-0.165
-0.175
-0.145
-0.125
-0.075
-0.085
-0.085
-0.075
-0.105
-0.095
-0.115
-0.135
-0.105
-0.095
-0.115
-0.115
-0.085
-0.085
-0.075
-0.065
-0.065
-0.065
-0.025
-0.015
-0.025
-0.005
-0.035
-0.035
-0.025
-0.035
-0.095
-0.145
-0.145
-0.145
-0.155
-0.195
-0.195
-0.195
-0.205
-0.215
-0.205
-0.205
-0.235
-0.255
-0.245
-0.265
-0.255
-0.265
-0.265
-0.225
-0.225
-0.225
-0.215
-0.155
-0.105
-0.115
-0.125
-0.165
-0.145
-0.145
-0.135
-0.165
-0.195
-0.165
0.065
0.405
0.225
-0.445
-0.505
-0.625
-0.555
-0.375
-0.275
-0.215
-0.225
-0.245
-0.235
-0.245
-0.225
-0.175
-0.155
-0.095
-0.115
-0.135
-0.125
-0.115
-0.105
-0.135
-0.145
-0.155
-0.135
-0.135
-0.115
-0.125
-0.105
-0.095
-0.095
-0.065
-0.025
0.005
0.035
0.035
-0.005
-0.005
-0.015
-0.005
-0.065
-0.085
-0.125
-0.125
-0.155
-0.175
-0.175
-0.195
-0.225
-0.225
-0.215
-0.245
-0.225
-0.225
-0.235
-0.255
-0.255
-0.245
-0.205
-0.225
-0.205
-0.165
-0.125
-0.095
-0.105
-0.125
-0.115
-0.145
-0.155
-0.155
-0.145
-0.135
-0.155
-0.165
-0.195
-0.165
0.085
0.435
0.275
-0.485
-0.495
-0.535
-0.545
-0.355
-0.135
-0.075
-0.095
-0.125
-0.135
-0.125
-0.105
-0.115
-0.115
-0.125
-0.115
-0.135
-0.125
-0.125
-0.125
-0.125
-0.135
-0.125
-0.095
-0.085
-0.045
-0.015
0.015
0.075
0.105
0.115
0.145
0.155
0.155
0.145
0.115
0.055
0.015
-0.025
-0.085
-0.125
-0.165
-0.165
-0.155
-0.145
-0.135
-0.135
-0.155
-0.145
-0.115
-0.075
-0.045
-0.055
-0.095
-0.085
-0.065
-0.085
-0.075
-0.105
-0.125
-0.115
-0.115
-0.125
-0.155
-0.135
-0.145
-0.155
-0.125
-0.095
-0.055
-0.045
-0.075
-0.035
0.025
0.195
0.595
0.745
0.085
-0.365
-0.485
-0.375
-0.185
-0.065
-0.025
-0.065
-0.075
-0.105
-0.115
-0.105
-0.125
-0.085
-0.055
-0.055
-0.075
-0.075
-0.015
0.005
0.035
0.045
0.105
0.145
0.155
0.115
0.115
0.155
0.165
0.135
0.135
0.145
0.135
0.135
0.115
0.145
0.115
0.065
0.035
0.005
-0.025
-0.035
-0.035
-0.025
0.005
-0.005
0.015
0.035
0.055
0.075
0.045
0.025
0.005
-0.015
-0.015
-0.025
-0.035
-0.035
-0.035
-0.055
-0.085
-0.085
-0.105
-0.095
-0.085
-0.075
-0.045
-0.035
0.015
0.135
0.485
0.795
0.265
-0.395
-0.455
-0.425
-0.195
-0.075
0.005
-0.015
-0.005
-0.055
-0.055
-0.055
0.005
-0.065
-0.055
0.005
-0.015
-0.025
0.025
0.045
0.025
0.075
0.155
0.195
0.175
0.175
0.175
0.155
0.165
0.205
0.205
0.165
0.245
0.245
0.165
0.145
0.135
0.085
0.065
0.065
-0.015
-0.015
0.015
0.055
0.065
0.085
0.085
0.125
0.025
-0.015
0.035
0.065
-0.015
-0.045
-0.005
-0.035
-0.065
-0.055
-0.055
-0.065
-0.055
-0.075
-0.045
-0.045
-0.035
-0.005
0.045
0.055
0.075
0.035
0.025
0.005
0.045
0.325
0.695
0.525
-0.265
-0.465
-0.475
-0.255
-0.095
-0.045
-0.035
-0.035
-0.025
-0.025
-0.015
0.025
0.075
0.085
0.085
0.005
0.015
0.025
0.025
0.015
0.005
0.005
-0.015
-0.005
-0.005
0.005
0.035
0.025
0.095
0.105
0.095
0.135
0.195
0.215
0.225
0.205
0.155
0.095
0.065
0.055
-0.015
-0.055
-0.045
-0.065
-0.035
-0.045
-0.065
-0.095
-0.045
-0.085
-0.095
-0.065
-0.045
-0.025
0.015
0.025
0.015
0.005
0.015
-0.075
-0.045
-0.085
-0.045
-0.065
-0.095
-0.105
-0.095
-0.085
-0.075
-0.145
-0.055
-0.055
-0.075
-0.105
0.015
0.255
0.585
0.405
-0.275
-0.265
-0.435
-0.415
-0.225
-0.085
-0.045
-0.085
-0.085
-0.075
-0.085
-0.065
-0.075
-0.055
-0.065
-0.055
-0.025
-0.015
-0.025
0.005
0.065
0.105
0.155
0.125
0.125
0.125
0.135
0.135
0.095
0.115
0.145
0.125
0.135
0.155
0.155
0.125
0.045
0.015
0.015
-0.025
-0.065
-0.065
0.015
-0.005
-0.005
-0.025
-0.025
-0.025
-0.015
-0.025
-0.105
-0.105
-0.125
-0.125
-0.105
-0.125
-0.115
-0.105
-0.115
-0.105
-0.105
-0.105
-0.085
-0.065
-0.045
-0.035
0.015
0.015
0.015
0.005
0.015
0.005
0.005
-0.015
-0.025
-0.025
-0.035
-0.045
-0.035
-0.085
-0.075
-0.085
-0.075
-0.095
-0.085
-0.075
-0.055
-0.035
-0.045
-0.015
0.005
0.015
0.035
0.055
0.065
-0.045
-0.035
-0.025
-0.035
0.005
0.205
0.525
0.495
-0.275
-0.445
-0.455
-0.485
-0.315
-0.165
-0.055
-0.065
-0.065
-0.045
-0.025
0.015
0.025
0.045
0.065
0.075
0.095
0.075
0.065
0.035
0.075
0.075
0.055
0.055
0.075
0.065
0.075
0.095
0.075
0.115
0.145
0.125
0.145
0.145
0.175
0.185
0.185
0.165
0.115
0.095
0.095
0.045
0.005
-0.035
-0.035
-0.025
-0.035
-0.045
-0.065
-0.085
-0.075
-0.085
-0.085
-0.075
-0.065
-0.045
-0.045
-0.035
-0.005
0.005
-0.015
0.005
0.065
0.105
0.085
0.015
0.035
0.015
0.005
0.175
0.545
0.705
-0.035
-0.445
-0.515
-0.375
-0.175
-0.095
-0.025
-0.065
-0.085
-0.075
-0.065
-0.045
-0.015
0.015
0.045
0.055
0.055
0.045
0.055
0.035
0.035
0.055
0.055
0.065
0.065
0.065
0.075
0.085
0.105
0.115
0.135
0.175
0.155
0.145
0.175
0.145
0.165
0.135
0.105
0.085
0.065
0.025
0.035
0.015
0.005
0.005
-0.015
-0.055
-0.075
-0.075
-0.085
-0.065
-0.065
-0.045
-0.075
-0.095
-0.085
-0.055
-0.025
0.005
-0.005
-0.025
-0.045
0.115
0.445
0.685
-0.155
-0.515
-0.625
-0.555
-0.315
-0.155
-0.125
-0.145
-0.135
-0.155
-0.135
-0.095
-0.085
-0.095
-0.055
-0.015
0.005
0.015
-0.005
0.015
0.025
0.035
0.055
0.075
0.065
0.065
0.085
0.115
0.115
0.115
0.125
0.135
0.105
0.095
0.105
0.055
-0.005
-0.025
-0.035
0.005
-0.005
-0.065
-0.075
-0.065
-0.115
-0.095
-0.125
-0.135
-0.115
-0.195
-0.185
-0.215
-0.195
-0.185
-0.165
-0.175
-0.205
-0.185
-0.175
-0.215
-0.205
-0.185
-0.145
-0.095
-0.045
-0.055
-0.115
-0.155
-0.165
-0.155
-0.155
-0.145
-0.165
-0.185
-0.215
-0.215
-0.195
-0.205
-0.215
-0.245
-0.195
-0.185
-0.215
-0.235
-0.195
-0.215
-0.105
0.165
0.555
0.415
-0.375
-0.575
-0.625
-0.445
-0.275
-0.275
-0.195
-0.245
-0.225
-0.225
-0.195
-0.205
-0.205
-0.235
-0.195
-0.195
-0.185
-0.165
-0.135
-0.175
-0.175
-0.095
-0.005
-0.075
0.015
-0.005
0.025
0.035
0.005
0.045
0.085
0.055
0.045
0.005
0.005
0.055
-0.065
-0.145
-0.125
-0.165
-0.235
-0.225
-0.215
-0.245
-0.245
-0.255
-0.265
-0.225
-0.245
-0.255
-0.225
-0.185
-0.165
-0.165
-0.155
-0.225
-0.195
-0.165
-0.205
-0.145
0.085
0.435
0.245
-0.475
-0.595
-0.715
-0.475
-0.325
-0.225
-0.255
-0.265
-0.215
-0.235
-0.245
-0.225
-0.235
-0.275
-0.285
-0.265
-0.245
-0.255
-0.275
-0.325
-0.295
-0.335
-0.365
-0.415
-0.465
-0.495
-0.535
-0.635
-0.765
-0.545
-0.325
-0.075
-0.075
-0.175
-0.215
-0.195
-0.195
-0.205
-0.145
-0.085
-0.095
-0.155
-0.065
0.035
0.055
0.165
0.135
0.115
0.065
0.095
0.055
-0.035
-0.015
0.025
-0.005
-0.075
-0.035
0.055
-0.015
-0.065
-0.025
0.055
0.005
0.045
0.075
0.065
0.075
0.015
0.015
0.035
-0.055
-0.055
-0.095
-0.075
-0.115
-0.125
-0.105
-0.125
-0.085
-0.075
-0.125
-0.075
0.085
0.455
0.585
0.015
-0.445
-0.515
-0.505
-0.325
-0.105
-0.075
-0.105
-0.085
-0.065
-0.095
-0.115
-0.095
-0.115
-0.135
-0.125
-0.115
-0.115
-0.055
-0.085
-0.135
-0.135
-0.095
-0.065
-0.055
-0.015
0.005
0.035
0.085
0.135
0.215
0.095
0.035
0.065
0.125
0.085
0.035
-0.015
-0.045
-0.075
-0.125
-0.165
-0.165
-0.125
-0.115
-0.195
-0.135
-0.115
-0.125
-0.095
-0.055
-0.035
0.015
-0.095
-0.085
-0.035
-0.085
-0.055
-0.025
-0.035
-0.045
-0.055
0.045
0.015
-0.105
-0.045
-0.035
-0.015
-0.025
-0.035
-0.025
0.025
0.085
0.055
0.055
-0.005
0.015
-0.045
-0.025
0.005
-0.055
-0.015
-0.015
0.005
-0.085
0.155
0.565
0.545
-0.205
-0.465
-0.545
-0.465
-0.255
-0.035
0.055
0.065
0.025
0.035
0.025
0.045
0.015
0.065
0.055
-0.025
-0.005
0.085
0.005
-0.005
-0.015
0.005
0.035
0.055
0.065
0.075
0.165
0.245
0.205
0.265
0.235
0.225
0.235
0.285
0.235
0.315
0.115
0.075
0.095
0.005
0.015
-0.055
-0.065
-0.025
-0.035
-0.045
-0.085
-0.115
-0.075
-0.005
0.045
-0.015
0.015
0.015
0.005
-0.035
-0.025
0.025
-0.055
-0.015
-0.025
0.015
0.295
0.565
0.245
-0.425
-0.425
-0.505
-0.315
-0.115
-0.015
0.005
0.055
0.005
0.005
0.005
0.035
0.045
0.055
0.025
-0.005
0.015
0.025
0.025
0.065
0.025
0.045
0.085
0.025
0.075
0.145
0.095
0.085
0.145
0.175
0.245
0.275
0.255
0.215
0.145
0.085
0.035
-0.005
-0.035
-0.085
-0.115
-0.105
-0.145
-0.185
-0.155
-0.155
-0.145
-0.105
-0.085
-0.075
-0.085
-0.035
0.055
0.065
0.075
0.065
0.045
0.005
-0.025
-0.005
-0.055
-0.065
-0.065
-0.065
-0.085
-0.065
-0.055
-0.045
-0.025
-0.025
-0.055
0.105
0.455
0.675
0.125
-0.325
-0.285
-0.395
-0.295
-0.095
-0.005
-0.025
-0.055
-0.055
-0.065
-0.065
-0.075
-0.085
-0.075
-0.055
-0.065
-0.065
-0.015
-0.025
0.005
0.035
0.105
0.155
0.165
0.175
0.195
0.205
0.195
0.205
0.265
0.235
0.255
0.255
0.225
0.195
0.175
0.105
0.055
0.035
0.015
-0.015
0.005
0.015
0.035
0.035
0.035
0.015
0.015
-0.005
-0.035
-0.045
-0.025
-0.065
-0.055
-0.075
-0.085
-0.065
-0.065
-0.065
-0.085
-0.065
-0.045
-0.025
-0.035
-0.015
0.005
0.045
0.035
0.005
0.025
0.025
0.035
0.015
0.005
0.005
-0.005
-0.005
0.005
-0.015
-0.005
-0.025
-0.005
-0.015
0.115
0.465
0.745
0.265
-0.385
-0.525
-0.495
-0.255
-0.055
0.035
0.045
-0.015
0.005
-0.005
-0.015
-0.005
-0.005
0.015
0.005
-0.015
-0.005
-0.015
-0.015
-0.005
0.025
0.035
0.015
0.035
0.095
0.085
0.085
0.115
0.155
0.205
0.265
0.275
0.265
0.255
0.245
0.205
0.115
0.075
0.045
0.005
-0.005
-0.025
-0.025
-0.035
-0.055
-0.075
-0.095
-0.085
-0.095
-0.085
-0.075
-0.065
-0.055
-0.045
-0.015
0.005
0.005
-0.015
-0.025
-0.025
-0.015
-0.035
0.055
0.325
0.645
0.335
-0.425
-0.575
-0.575
-0.325
-0.155
-0.095
-0.105
-0.115
-0.115
-0.095
-0.075
-0.045
-0.055
-0.025
0.025
0.055
0.045
0.015
0.025
0.025
0.025
0.025
0.025
0.035
0.045
0.055
0.065
0.075
0.055
0.075
0.075
0.075
0.085
0.085
0.065
0.035
0.005
-0.045
-0.085
-0.085
-0.085
-0.095
-0.085
-0.115
-0.135
-0.125
-0.135
-0.145
-0.135
-0.135
-0.145
-0.145
-0.135
-0.135
-0.145
-0.155
-0.155
-0.145
-0.155
-0.015
0.295
0.605
0.135
-0.405
-0.405
-0.505
-0.385
-0.205
-0.115
-0.105
-0.105
-0.125
-0.135
-0.135
-0.125
-0.145
-0.165
-0.165
-0.165
-0.155
-0.125
-0.105
-0.095
-0.065
-0.065
-0.045
-0.005
0.005
0.015
0.055
0.045
0.055
0.065
0.065
0.025
0.035
0.045
-0.005
-0.055
-0.115
-0.155
-0.195
-0.215
-0.205
-0.215
-0.215
-0.175
-0.165
-0.125
-0.085
-0.075
-0.105
-0.105
-0.145
-0.055
-0.085
-0.145
-0.165
-0.105
-0.125
-0.175
-0.105
-0.185
-0.195
-0.175
-0.145
-0.165
-0.175
-0.125
-0.165
-0.125
-0.105
-0.055
0.005
0.215
0.575
0.305
-0.435
-0.485
-0.585
-0.485
-0.305
-0.245
-0.205
-0.125
-0.195
-0.195
-0.215
-0.235
-0.235
-0.195
-0.235
-0.245
-0.225
-0.135
-0.075
-0.185
-0.065
-0.035
0.025
-0.035
0.025
0.035
0.045
0.095
0.005
-0.005
0.035
0.115
0.085
0.045
0.055
-0.025
-0.055
-0.095
-0.115
-0.105
-0.145
-0.105
-0.125
-0.095
-0.085
-0.105
-0.095
-0.115
-0.145
-0.085
-0.155
-0.205
-0.235
-0.225
-0.215
-0.205
-0.195
-0.285
-0.235
-0.225
-0.165
-0.225
-0.245
-0.225
-0.165
-0.125
-0.155
-0.145
-0.085
-0.095
-0.075
-0.065
-0.055
-0.085
-0.095
-0.095
-0.115
-0.115
-0.135
-0.155
-0.145
-0.165
-0.165
-0.165
-0.155
-0.175
-0.175
-0.175
-0.195
-0.175
-0.135
-0.125
-0.105
-0.055
-0.005
-0.035
-0.055
-0.065
-0.065
-0.085
-0.095
-0.115
-0.125
-0.105
-0.105
-0.115
-0.095
-0.115
-0.165
-0.125
-0.125
-0.125
-0.055
-0.215
-0.115
-0.005
0.015
-0.035
-0.065
-0.045
-0.025
-0.025
-0.035
-0.055
-0.035
0.165
0.585
0.615
-0.095
-0.525
-0.645
-0.535
-0.265
-0.145
-0.115
-0.085
-0.085
-0.045
-0.055
-0.045
-0.025
-0.035
-0.035
-0.025
-0.065
-0.045
-0.055
-0.055
-0.035
-0.085
-0.065
-0.055
-0.035
0.005
0.015
0.015
0.035
0.045
0.075
0.105
0.145
0.105
0.105
0.105
0.155
0.185
0.175
0.125
0.075
0.035
0.025
-0.005
-0.025
-0.025
-0.055
-0.045
-0.085
-0.095
-0.095
-0.085
-0.005
-0.045
-0.095
-0.085
-0.105
-0.075
-0.125
-0.085
-0.065
-0.055
-0.045
-0.035
-0.015
0.025
0.015
-0.015
0.015
-0.005
-0.025
-0.035
-0.025
-0.025
-0.045
-0.065
-0.065
-0.055
-0.035
-0.055
-0.065
-0.075
-0.045
-0.105
-0.075
-0.085
-0.095
-0.065
-0.045
-0.005
-0.005
0.025
0.085
0.155
0.105
0.005
0.065
0.325
0.675
0.635
-0.075
-0.415
-0.525
-0.325
-0.105
-0.035
-0.025
-0.025
-0.015
-0.035
-0.015
-0.005
-0.035
-0.005
0.015
0.025
0.055
0.055
0.075
0.145
0.075
0.095
0.075
0.055
0.055
0.065
0.075
0.105
0.115
0.155
0.135
0.095
0.155
0.165
0.165
0.175
0.115
0.145
0.045
0.055
0.015
0.015
0.045
0.085
0.075
0.065
0.055
0.035
0.005
0.025
0.025
-0.005
-0.035
0.045
-0.015
-0.125
-0.025
-0.015
0.045
0.245
0.545
0.645
-0.165
-0.455
-0.495
-0.395
-0.185
-0.105
-0.075
-0.065
-0.065
-0.095
-0.145
-0.125
-0.115
-0.085
-0.045
-0.045
-0.095
-0.085
-0.035
-0.015
0.075
0.035
0.025
0.065
0.115
0.185
0.205
0.145
0.145
0.185
0.245
0.295
0.285
0.265
0.225
0.195
0.155
0.115
0.045
0.005
-0.035
-0.025
-0.045
-0.065
-0.055
-0.055
-0.065
-0.045
-0.035
0.005
-0.035
0.005
0.035
0.085
0.175
0.155
0.075
0.205
0.505
0.775
0.175
-0.445
-0.525
-0.485
-0.255
-0.075
-0.035
0.005
-0.085
-0.105
-0.055
-0.005
-0.005
-0.005
0.015
0.045
0.065
0.085
0.145
0.115
0.185
0.125
0.045
0.055
0.075
0.085
0.065
0.055
0.045
0.085
0.095
0.135
0.145
0.145
0.175
0.095
0.005
0.005
-0.025
-0.055
-0.055
-0.015
-0.065
-0.135
-0.115
-0.255
-0.225
-0.145
-0.075
-0.025
-0.115
-0.055
0.025
-0.085
-0.145
-0.105
-0.095
-0.065
-0.125
-0.105
-0.075
-0.115
-0.095
-0.125
-0.135
-0.085
-0.125
0.055
0.355
0.545
-0.045
-0.355
-0.165
-0.365
-0.325
-0.145
-0.055
-0.045
-0.055
-0.075
-0.145
-0.125
-0.075
-0.035
-0.145
-0.105
-0.035
-0.075
-0.025
0.005
-0.025
0.025
0.025
0.085
0.065
0.015
0.035
0.045
0.085
0.075
0.025
0.045
0.035
0.005
-0.015
-0.055
-0.095
-0.145
-0.155
-0.215
-0.245
-0.255
-0.215
-0.205
-0.185
-0.175
-0.165
-0.185
-0.165
-0.175
-0.185
-0.115
-0.095
-0.095
-0.095
-0.105
-0.135
-0.185
-0.165
-0.225
-0.305
-0.275
-0.295
-0.335
-0.285
-0.395
-0.355
-0.215
0.035
0.425
0.385
-0.275
-0.455
-0.425
-0.415
-0.265
-0.155
-0.095
-0.105
-0.175
-0.175
-0.195
-0.205
-0.165
-0.195
-0.175
-0.175
-0.145
-0.135
-0.125
-0.145
-0.105
-0.095
-0.035
-0.075
-0.095
-0.065
-0.015
0.035
0.065
0.095
0.075
0.085
0.065
0.045
0.025
-0.035
-0.055
-0.105
-0.135
-0.175
-0.195
-0.205
-0.195
-0.185
-0.215
-0.205
-0.165
-0.155
-0.155
-0.165
-0.145
-0.135
-0.105
-0.035
0.175
0.475
0.525
-0.325
-0.665
-0.735
-0.505
-0.265
-0.175
-0.165
-0.165
-0.195
-0.245
-0.205
-0.215
-0.195
-0.165
-0.145
-0.115
-0.075
-0.045
-0.065
-0.045
-0.015
-0.025
-0.025
-0.015
-0.025
-0.025
-0.025
0.015
0.005
0.035
0.055
0.025
0.055
0.015
0.005
-0.035
-0.055
-0.095
-0.125
-0.115
-0.125
-0.125
-0.105
-0.105
-0.065
-0.065
-0.075
-0.075
-0.075
-0.085
-0.105
-0.075
-0.085
-0.035
0.085
0.395
0.585
-0.085
-0.525
-0.625
-0.495
-0.285
-0.165
-0.125
-0.085
-0.175
-0.155
-0.125
-0.125
-0.105
-0.035
-0.075
-0.055
-0.035
-0.035
-0.035
-0.075
-0.085
-0.055
-0.045
-0.025
-0.075
-0.065
-0.005
0.035
0.205
-0.115
-0.045
0.025
0.045
0.025
0.005
-0.055
-0.085
-0.075
-0.045
-0.115
-0.085
-0.045
-0.155
-0.135
-0.115
-0.095
-0.105
-0.115
-0.095
-0.125
-0.095
-0.015
-0.175
-0.165
-0.115
-0.085
-0.115
-0.125
-0.135
-0.125
-0.115
-0.105
-0.085
-0.025
-0.015
-0.005
-0.035
-0.055
-0.065
-0.055
-0.075
-0.075
-0.095
-0.105
-0.105
-0.085
-0.125
-0.125
-0.125
-0.115
-0.135
-0.125
-0.095
-0.095
-0.065
-0.045
-0.025
-0.025
-0.025
0.005
-0.015
-0.055
-0.045
-0.035
-0.055
-0.065
-0.075
-0.055
-0.105
-0.075
-0.075
-0.085
-0.075
-0.065
-0.075
-0.055
-0.025
-0.005
0.045
0.055
0.085
0.065
-0.005
-0.035
-0.015
-0.035
-0.025
-0.035
-0.045
-0.095
0.005
0.315
0.635
0.375
-0.305
-0.495
-0.505
-0.315
-0.135
-0.035
0.025
-0.005
0.005
0.005
0.005
0.035
0.025
0.055
-0.015
-0.025
-0.015
-0.025
-0.015
-0.015
-0.025
-0.045
-0.045
-0.025
0.005
0.035
0.065
0.085
0.125
0.135
0.155
0.175
0.175
0.175
0.195
0.195
0.185
0.125
0.065
0.025
-0.005
-0.035
-0.045
-0.055
-0.075
-0.065
-0.075
-0.065
-0.045
-0.025
-0.005
0.045
0.025
0.035
0.055
0.065
0.035
0.035
0.225
0.585
0.665
-0.155
-0.415
-0.495
-0.325
-0.115
-0.045
-0.055
-0.085
-0.075
-0.065
-0.065
-0.055
-0.025
-0.015
0.015
0.005
-0.005
-0.005
0.005
0.045
0.015
0.005
0.015
0.015
0.005
0.015
0.045
0.055
0.025
0.015
0.005
0.015
-0.005
-0.045
-0.075
-0.045
-0.085
-0.155
-0.265
-0.315
-0.375
-0.285
-0.295
-0.385
-0.445
-0.525
-0.415
-0.225
-0.265
-0.445
-0.575
-0.295
-0.115
-0.175
-0.225
-0.185
-0.175
-0.235
-0.135
-0.075
-0.075
-0.095
-0.075
-0.115
-0.105
-0.075
-0.085
-0.055
-0.065
-0.065
-0.005
0.075
0.135
0.175
0.185
0.165
0.125
0.085
0.085
0.105
0.145
0.105
0.075
0.105
0.145
0.115
0.075
0.075
0.085
0.115
0.055
0.065
0.035
0.045
0.005
0.055
0.055
0.065
0.185
0.485
0.815
0.585
-0.155
-0.435
-0.345
-0.045
0.045
0.085
0.125
0.135
0.085
0.065
0.055
0.075
0.045
0.065
-0.015
0.015
0.015
0.005
-0.025
0.025
0.075
0.045
-0.005
0.055
0.075
0.065
0.055
0.095
0.095
0.185
0.265
0.205
0.215
0.215
0.205
0.175
0.125
0.055
-0.005
-0.035
-0.045
-0.055
-0.155
-0.135
-0.105
-0.105
-0.105
-0.135
-0.145
-0.115
-0.085
-0.095
0.015
0.055
-0.085
0.065
0.455
0.685
-0.045
-0.535
-0.685
-0.645
-0.385
0.045
-0.005
-0.045
-0.045
-0.105
-0.165
-0.195
-0.125
-0.125
-0.125
-0.125
-0.115
-0.075
-0.025
-0.015
-0.045
0.015
0.035
0.045
0.005
0.015
0.025
0.035
0.015
0.015
0.035
0.055
0.005
0.055
0.045
-0.125
-0.195
-0.165
-0.135
-0.115
-0.075
-0.035
-0.005
-0.025
0.025
0.025
0.035
0.015
-0.075
-0.085
-0.065
-0.175
-0.085
-0.055
-0.135
-0.045
-0.075
-0.165
-0.255
-0.195
-0.205
-0.145
-0.125
-0.125
-0.105
-0.095
-0.075
-0.065
-0.025
-0.055
0.005
0.265
0.545
0.545
-0.155
-0.435
-0.455
-0.495
-0.335
-0.185
-0.115
-0.105
-0.085
-0.115
-0.055
-0.025
0.005
0.005
0.025
0.045
0.015
0.035
0.045
0.035
0.025
0.035
0.035
0.005
0.015
0.015
0.025
-0.005
-0.015
0.005
0.025
0.015
0.025
0.025
0.015
-0.025
-0.035
-0.085
-0.125
-0.135
-0.165
-0.195
-0.205
-0.195
-0.155
-0.215
-0.215
-0.175
-0.175
-0.255
-0.265
-0.245
-0.285
-0.295
-0.315
-0.325
-0.335
-0.325
-0.285
-0.295
-0.325
-0.355
-0.345
-0.305
-0.315
-0.325
-0.185
0.165
0.495
0.005
-0.625
-0.675
-0.765
-0.565
-0.375
-0.275
-0.345
-0.395
-0.385
-0.385
-0.385
-0.385
-0.325
-0.315
-0.325
-0.325
-0.385
-0.385
-0.335
-0.315
-0.365
-0.315
-0.295
-0.235
-0.245
-0.235
-0.155
-0.175
-0.245
-0.195
-0.185
-0.075
-0.075
-0.125
-0.265
-0.345
-0.275
-0.185
-0.245
-0.315
-0.305
-0.335
-0.335
-0.335
-0.285
-0.275
-0.255
-0.285
-0.345
-0.295
-0.335
-0.345
-0.275
-0.315
-0.335
-0.345
-0.355
-0.335
-0.365
-0.395
-0.375
-0.365
-0.315
-0.355
-0.375
-0.295
-0.295
-0.295
-0.275
-0.255
-0.215
-0.225
-0.275
-0.255
-0.235
-0.245
-0.285
-0.255
-0.285
-0.285
-0.295
-0.315
-0.305
-0.255
-0.285
-0.255
-0.215
-0.175
-0.185
-0.215
-0.045
0.325
0.755
0.365
-0.515
-0.705
-0.575
-0.375
-0.265
-0.215
-0.225
-0.185
-0.205
-0.285
-0.265
-0.225
-0.195
-0.195
-0.175
-0.195
-0.185
-0.165
-0.185
-0.155
-0.095
-0.085
-0.005
0.035
0.025
-0.005
0.035
0.055
0.115
0.115
0.065
0.075
0.105
0.135
0.125
0.065
0.105
0.075
-0.015
-0.095
-0.115
-0.205
-0.165
-0.105
-0.125
-0.115
-0.075
-0.055
-0.105
-0.105
-0.055
-0.105
-0.145
-0.155
-0.095
-0.115
-0.175
-0.155
-0.145
-0.125
-0.105
-0.095
-0.085
-0.095
-0.115
-0.105
-0.015
-0.125
-0.055
-0.045
-0.055
-0.055
-0.065
-0.025
-0.075
-0.075
-0.065
-0.105
-0.095
-0.085
-0.105
-0.125
-0.185
-0.105
-0.055
-0.025
-0.015
0.005
-0.015
-0.035
-0.045
-0.015
-0.025
-0.065
-0.045
-0.055
-0.045
-0.115
-0.145
-0.175
-0.185
-0.195
-0.155
-0.145
-0.215
-0.135
-0.105
-0.135
-0.115
-0.115
0.005
0.415
0.805
0.655
-0.315
-0.625
-0.485
-0.185
-0.005
0.005
0.035
0.025
0.035
0.005
0.005
-0.015
-0.015
0.025
-0.005
0.045
-0.045
-0.005
-0.015
0.025
0.035
0.045
0.035
0.035
0.055
0.065
0.095
0.095
0.115
0.155
0.155
0.145
0.145
0.195
0.225
0.185
0.095
0.035
0.015
-0.035
-0.045
-0.085
-0.105
-0.095
-0.105
-0.105
-0.105
-0.105
-0.105
-0.065
-0.065
-0.015
0.045
0.325
0.735
0.695
-0.275
-0.705
-0.435
-0.085
0.015
0.055
0.025
-0.005
-0.035
-0.025
-0.055
-0.065
-0.045
-0.065
-0.065
-0.075
-0.055
-0.025
-0.005
-0.005
0.015
0.055
0.095
0.105
0.135
0.145
0.185
0.215
0.215
0.215
0.225
0.225
0.235
0.235
0.185
0.115
0.115
0.025
0.005
-0.015
-0.055
-0.075
-0.065
-0.035
-0.045
-0.005
0.025
0.015
0.085
0.105
0.055
0.055
0.015
0.015
-0.025
-0.025
-0.035
-0.055
-0.055
-0.075
-0.095
-0.085
-0.075
-0.085
-0.095
-0.065
-0.055
-0.055
-0.055
-0.055
0.075
0.445
0.835
0.535
-0.325
-0.555
-0.535
-0.235
-0.015
0.045
0.015
0.015
-0.015
-0.025
-0.035
0.015
0.005
-0.015
0.025
0.045
0.035
0.045
0.025
0.025
0.005
0.035
0.105
0.135
0.145
0.155
0.165
0.185
0.235
0.255
0.275
0.275
0.265
0.285
0.225
0.215
0.155
0.065
0.025
-0.015
-0.025
-0.045
-0.095
-0.085
-0.115
-0.055
-0.065
-0.055
-0.075
-0.045
-0.025
0.025
0.015
0.075
0.325
0.725
0.545
-0.435
-0.655
-0.625
-0.365
-0.115
-0.035
-0.035
-0.065
-0.065
-0.045
-0.055
-0.025
-0.045
-0.045
0.005
0.045
0.105
0.095
0.075
0.135
0.105
0.115
0.095
0.165
0.195
0.205
0.235
0.235
0.235
0.205
0.275
0.255
0.225
0.225
0.205
0.135
0.075
0.035
0.055
0.025
-0.015
-0.005
0.035
0.055
0.065
0.095
0.095
0.095
0.145
0.075
0.075
0.025
0.025
0.005
-0.015
-0.035
-0.065
-0.025
-0.025
-0.005
-0.045
-0.105
-0.115
-0.105
-0.125
-0.105
-0.015
0.005
-0.015
-0.025
0.015
0.055
0.085
0.015
0.035
0.045
0.025
0.055
0.315
0.675
0.685
-0.215
-0.415
-0.425
-0.425
-0.205
-0.075
-0.045
-0.095
-0.045
-0.105
-0.095
-0.065
-0.045
-0.025
-0.005
0.025
0.065
0.095
0.135
0.125
0.145
0.175
0.135
0.165
0.165
0.165
0.145
0.165
0.215
0.235
0.155
0.045
0.185
0.295
0.195
0.135
0.145
0.085
0.005
0.025
0.005
-0.045
-0.045
-0.015
-0.075
-0.085
0.025
0.045
0.045
0.025
0.015
0.005
0.075
0.085
0.045
0.025
-0.015
-0.015
0.015
-0.035
-0.105
-0.085
0.015
-0.015
-0.045
-0.055
-0.075
-0.065
-0.045
-0.055
-0.035
-0.005
-0.025
0.015
0.075
0.095
0.095
0.085
0.035
0.035
0.045
0.015
-0.005
0.065
0.045
0.005
0.115
0.445
0.785
0.305
-0.375
-0.325
-0.435
-0.295
-0.115
0.005
0.005
-0.005
0.015
-0.025
-0.025
-0.005
0.055
0.045
0.075
0.105
0.085
0.075
0.075
0.055
0.045
0.025
0.015
0.025
0.025
0.045
0.065
0.095
0.105
0.125
0.125
0.095
0.125
0.155
0.125
0.045
0.095
0.075
0.055
0.045
0.045
0.055
0.095
0.095
0.045
-0.005
-0.025
0.015
-0.035
-0.055
-0.065
-0.055
-0.035
-0.055
-0.055
-0.065
-0.065
-0.055
-0.065
-0.025
-0.055
-0.085
-0.095
-0.075
-0.065
-0.035
-0.005
-0.025
-0.035
-0.035
-0.015
-0.105
-0.115
-0.115
-0.155
0.005
0.355
0.645
0.095
-0.495
-0.545
-0.555
-0.375
-0.215
-0.195
-0.145
-0.135
-0.115
-0.105
-0.105
-0.105
-0.085
-0.055
-0.005
-0.005
-0.005
-0.005
-0.005
-0.045
-0.005
-0.035
-0.035
-0.015
-0.035
0.005
-0.015
0.025
0.035
0.065
0.085
0.085
0.095
0.115
0.075
0.055
-0.005
-0.015
-0.065
-0.045
-0.035
-0.035
-0.045
-0.095
-0.085
-0.055
-0.085
-0.125
-0.135
-0.145
-0.155
-0.135
-0.205
-0.175
-0.165
-0.175
-0.165
-0.185
-0.165
-0.135
-0.175
-0.165
-0.095
-0.125
-0.095
-0.085
-0.065
-0.085
-0.125
-0.105
-0.105
-0.135
-0.155
-0.155
-0.155
-0.155
-0.155
-0.145
-0.175
-0.145
0.045
0.435
0.585
-0.215
-0.515
-0.595
-0.475
-0.275
-0.145
-0.075
-0.075
-0.095
-0.085
-0.095
-0.065
-0.085
-0.085
-0.105
-0.075
-0.135
-0.105
-0.095
-0.095
-0.085
-0.075
-0.055
-0.085
-0.095
-0.005
0.055
0.085
0.085
0.095
0.175
0.205
0.215
0.185
0.175
0.135
0.095
0.085
0.035
-0.015
-0.065
-0.115
-0.145
-0.155
-0.145
-0.135
-0.145
-0.145
-0.165
-0.145
-0.185
-0.175
-0.135
-0.105
-0.075
-0.065
-0.085
-0.035
-0.015
0.005
0.015
-0.015
0.055
0.385
0.755
0.435
-0.405
-0.645
-0.625
-0.325
-0.135
-0.135
-0.175
-0.155
-0.185
-0.135
-0.135
-0.105
-0.105
-0.095
-0.045
0.005
0.015
0.005
-0.025
-0.005
-0.015
-0.005
-0.015
-0.005
-0.005
-0.005
0.015
0.065
0.045
0.055
0.075
0.115
0.125
0.095
0.065
0.015
-0.015
-0.055
-0.075
-0.045
-0.055
-0.035
-0.035
-0.025
-0.025
-0.025
-0.055
-0.075
-0.085
-0.095
-0.125
-0.115
-0.105
-0.145
-0.145
-0.135
-0.135
-0.125
-0.135
-0.135
-0.125
-0.125
-0.105
-0.105
-0.075
-0.055
0.115
0.465
0.635
0.035
-0.385
-0.315
-0.415
-0.285
-0.115
-0.055
-0.055
-0.115
-0.125
-0.115
-0.115
-0.115
-0.115
-0.115
-0.105
-0.085
-0.105
-0.085
-0.075
-0.025
-0.005
0.015
0.055
0.085
0.095
0.135
0.195
0.225
0.215
0.175
0.155
0.175
0.145
0.125
0.075
0.035
-0.035
-0.075
-0.085
-0.125
-0.155
-0.155
-0.185
-0.175
-0.155
-0.155
-0.155
-0.115
-0.115
-0.095
-0.065
-0.045
-0.025
0.005
0.005
-0.025
-0.085
-0.095
-0.075
-0.095
-0.125
-0.145
-0.155
-0.155
-0.185
-0.185
-0.175
-0.165
-0.185
-0.185
-0.155
-0.165
-0.155
-0.165
-0.155
-0.135
-0.115
-0.095
-0.065
-0.045
-0.065
-0.055
-0.055
-0.105
-0.095
-0.115
-0.145
-0.165
-0.185
-0.175
-0.185
-0.215
-0.235
-0.205
-0.175
-0.205
-0.225
-0.235
-0.205
-0.035
0.345
0.635
0.075
-0.495
-0.585
-0.455
-0.215
-0.125
-0.115
-0.085
-0.065
-0.085
-0.095
-0.105
-0.105
-0.135
-0.145
-0.145
-0.145
-0.135
-0.135
-0.135
-0.115
-0.125
-0.105
-0.105
-0.085
-0.075
-0.065
-0.025
0.015
0.025
0.025
0.055
0.115
0.165
0.165
0.115
0.075
0.025
0.015
-0.025
-0.065
-0.115
-0.145
-0.155
-0.165
-0.185
-0.195
-0.195
-0.225
-0.215
-0.195
-0.155
-0.145
-0.145
-0.125
-0.145
0.085
0.535
0.395
-0.395
-0.525
-0.545
-0.325
-0.135
-0.065
-0.075
-0.125
-0.105
-0.135
-0.145
-0.145
-0.125
-0.105
-0.105
-0.085
-0.075
-0.075
-0.055
-0.035
-0.005
0.025
0.045
0.045
0.035
0.055
0.055
0.055
0.055
0.065
0.045
0.045
0.065
0.065
0.045
-0.025
-0.075
-0.095
-0.115
-0.125
-0.125
-0.105
-0.075
-0.055
-0.015
-0.025
-0.065
-0.065
-0.075
-0.075
-0.065
-0.085
-0.125
-0.135
-0.135
-0.115
-0.095
-0.135
-0.155
-0.145
-0.135
-0.135
-0.135
-0.115
-0.075
-0.075
-0.075
-0.065
-0.035
-0.005
-0.025
-0.055
-0.065
-0.065
-0.085
-0.125
-0.135
-0.165
-0.175
-0.185
-0.165
-0.165
-0.195
-0.185
-0.185
-0.175
-0.175
-0.165
-0.165
-0.145
-0.115
-0.105
-0.075
-0.055
-0.055
0.025
0.235
0.615
0.745
-0.015
-0.445
-0.585
-0.465
-0.215
-0.095
-0.095
-0.075
-0.105
-0.125
-0.105
-0.115
-0.105
-0.095
-0.095
-0.075
-0.015
0.045
0.065
0.045
0.055
0.045
0.055
0.055
0.015
0.015
0.015
-0.015
0.005
0.025
0.035
0.045
0.065
0.095
0.105
0.095
0.095
0.065
0.035
0.055
0.045
0.035
0.005
-0.015
-0.035
-0.045
-0.045
-0.075
-0.085
-0.095
-0.105
-0.125
-0.105
-0.085
-0.115
-0.115
-0.135
-0.125
-0.105
-0.125
-0.105
-0.075
-0.065
-0.055
-0.045
-0.015
-0.015
-0.025
-0.055
-0.045
-0.055
-0.075
-0.115
-0.115
-0.145
-0.135
-0.125
-0.115
-0.135
-0.125
-0.135
-0.145
-0.135
-0.145
-0.145
-0.125
-0.095
-0.125
-0.135
-0.085
-0.075
-0.095
-0.085
-0.055
-0.075
-0.075
-0.055
-0.005
0.015
-0.005
-0.035
0.005
0.275
0.635
0.585
-0.225
-0.345
-0.365
-0.425
-0.225
-0.085
-0.015
-0.025
-0.005
-0.005
-0.075
-0.065
-0.025
-0.025
-0.045
-0.055
-0.015
0.025
0.025
0.035
0.045
0.035
0.055
0.035
0.045
0.055
0.065
0.085
0.135
0.115
0.155
0.175
0.185
0.205
0.185
0.165
0.145
0.105
0.055
0.055
0.045
0.025
0.015
0.025
0.015
-0.005
-0.025
-0.015
-0.055
-0.055
-0.055
-0.085
-0.085
-0.075
-0.065
-0.075
-0.075
-0.065
-0.055
-0.055
-0.055
-0.065
-0.065
-0.045
-0.015
-0.015
-0.005
-0.005
-0.005
0.015
-0.005
-0.015
-0.015
-0.015
-0.025
-0.045
-0.045
-0.045
-0.055
-0.065
-0.055
-0.075
-0.095
0.065
0.405
0.755
0.355
-0.365
-0.435
-0.435
-0.245
-0.055
0.035
0.045
0.005
-0.005
-0.005
0.015
-0.015
-0.035
-0.015
-0.015
-0.005
-0.015
0.005
0.005
-0.005
0.025
0.045
0.055
0.045
0.065
0.075
0.105
0.105
0.165
0.205
0.255
0.265
0.275
0.265
0.225
0.175
0.145
0.105
0.075
0.015
-0.055
-0.055
-0.055
-0.055
-0.055
-0.035
-0.075
-0.045
-0.025
-0.045
0.065
0.355
0.705
0.485
-0.315
-0.505
-0.435
-0.135
-0.025
0.005
-0.015
0.005
-0.025
-0.095
-0.055
-0.025
-0.065
-0.075
-0.075
-0.055
-0.025
-0.005
-0.025
-0.025
-0.045
-0.025
0.005
0.005
0.035
0.075
0.125
0.185
0.185
0.205
0.195
0.215
0.235
0.235
0.185
0.145
0.115
0.055
-0.045
-0.035
-0.055
-0.065
-0.075
-0.075
-0.085
-0.085
-0.075
0.015
0.295
0.695
0.425
-0.435
-0.435
-0.445
-0.235
-0.015
0.055
0.015
-0.025
-0.055
-0.095
-0.135
-0.145
-0.115
-0.115
-0.115
-0.125
-0.125
-0.105
-0.085
-0.075
-0.065
-0.045
-0.025
-0.035
-0.005
0.035
0.045
0.085
0.125
0.175
0.205
0.245
0.235
0.185
0.085
0.035
0.005
-0.035
-0.065
-0.095
-0.105
-0.125
-0.145
-0.165
-0.165
-0.155
-0.145
-0.125
-0.115
-0.125
-0.105
-0.105
-0.105
-0.075
-0.025
0.005
0.015
-0.065
-0.115
-0.115
-0.105
-0.135
-0.115
-0.155
-0.145
-0.125
-0.165
-0.195
-0.185
-0.165
-0.155
-0.165
-0.175
-0.115
-0.165
-0.165
-0.115
-0.135
-0.115
-0.135
-0.165
-0.155
-0.095
-0.095
-0.105
-0.115
-0.115
-0.105
-0.155
-0.195
-0.185
-0.145
-0.155
-0.165
-0.175
-0.175
-0.145
-0.125
-0.185
-0.235
-0.225
-0.175
-0.185
-0.195
-0.185
-0.145
-0.155
-0.145
-0.175
-0.155
-0.105
-0.105
-0.125
-0.125
-0.125
-0.085
-0.165
-0.175
-0.165
-0.155
-0.175
-0.205
-0.165
0.105
0.475
0.435
-0.265
-0.425
-0.525
-0.505
-0.345
-0.265
-0.185
-0.155
-0.155
-0.135
-0.145
-0.155
-0.145
-0.155
-0.155
-0.175
-0.175
-0.175
-0.175
-0.205
-0.185
-0.175
-0.165
-0.165
-0.155
-0.145
-0.125
-0.085
-0.085
-0.065
-0.055
-0.065
-0.015
-0.005
0.015
0.045
0.075
0.055
0.045
-0.015
-0.065
-0.085
-0.135
-0.175
-0.195
-0.205
-0.215
-0.245
-0.205
-0.215
-0.235
-0.245
-0.245
-0.215
-0.205
-0.185
-0.155
-0.205
-0.175
-0.115
-0.095
-0.085
-0.075
0.075
0.385
0.465
-0.065
-0.425
-0.605
-0.505
-0.325
-0.235
-0.225
-0.205
-0.215
-0.205
-0.195
-0.185
-0.185
-0.165
-0.125
-0.115
-0.095
-0.045
-0.015
-0.005
-0.015
-0.005
-0.005
-0.015
-0.025
-0.035
-0.035
-0.035
-0.015
-0.005
-0.005
0.015
0.035
0.035
-0.005
-0.065
-0.075
-0.105
-0.145
-0.175
-0.185
-0.185
-0.175
-0.165
-0.125
-0.095
-0.095
-0.085
-0.095
-0.105
-0.125
-0.145
-0.175
-0.125
-0.125
-0.145
-0.165
-0.175
-0.205
-0.185
-0.165
-0.195
-0.175
-0.165
-0.165
-0.165
-0.155
-0.145
-0.125
-0.125
-0.105
-0.055
-0.015
-0.015
-0.035
0.125
0.475
0.765
0.235
-0.375
-0.465
-0.465
-0.325
-0.185
-0.095
-0.085
-0.095
-0.125
-0.115
-0.105
-0.125
-0.095
-0.085
-0.075
-0.065
-0.055
-0.035
0.005
0.015
0.045
0.075
0.105
0.115
0.115
0.135
0.135
0.115
0.135
0.115
0.125
0.125
0.115
0.115
0.085
0.065
0.015
-0.025
-0.025
-0.055
-0.055
-0.055
-0.045
-0.025
-0.005
0.035
0.025
0.015
-0.015
-0.035
-0.035
-0.055
-0.055
-0.055
-0.085
0.065
0.385
0.685
-0.005
-0.585
-0.645
-0.475
-0.225
-0.055
0.015
0.015
0.005
0.015
0.015
0.015
0.005
-0.005
-0.015
-0.025
-0.035
-0.045
-0.065
-0.065
-0.045
-0.025
-0.025
-0.015
0.015
0.025
0.045
0.085
0.125
0.165
0.195
0.205
0.225
0.205
0.195
0.185
0.145
0.125
0.075
0.045
0.015
-0.015
-0.035
-0.065
-0.085
-0.085
-0.105
-0.085
-0.095
-0.095
-0.085
-0.055
-0.065
-0.055
-0.095
-0.075
-0.055
-0.065
-0.055
-0.035
-0.035
-0.015
-0.005
0.025
-0.005
-0.035
-0.035
-0.035
-0.055
-0.055
-0.075
-0.075
-0.085
-0.095
-0.085
-0.075
-0.095
-0.105
-0.105
-0.115
-0.115
-0.115
-0.115
-0.115
-0.085
-0.075
-0.055
-0.025
-0.015
-0.015
0.005
0.045
0.055
0.055
0.035
0.025
0.045
0.015
-0.015
-0.015
-0.045
-0.055
-0.065
-0.085
-0.065
0.115
0.485
0.675
0.105
-0.345
-0.415
-0.415
-0.235
-0.105
-0.045
-0.035
-0.025
-0.005
0.045
0.045
0.025
0.035
0.025
0.005
0.005
-0.005
-0.015
-0.015
-0.015
-0.015
-0.015
-0.005
-0.005
0.015
0.015
0.025
0.045
0.075
0.105
0.125
0.175
0.225
0.245
0.245
0.235
0.195
0.115
0.055
0.025
0.005
-0.055
-0.085
-0.085
-0.115
-0.105
-0.105
-0.115
-0.125
-0.135
-0.125
-0.125
-0.125
-0.105
-0.085
-0.095
0.025
0.345
0.715
0.105
-0.455
-0.545
-0.405
-0.195
-0.075
-0.055
-0.085
-0.105
-0.125
-0.135
-0.125
-0.135
-0.135
-0.145
-0.145
-0.115
-0.125
-0.115
-0.085
-0.075
-0.055
-0.025
-0.005
0.025
0.045
0.085
0.115
0.125
0.145
0.145
0.145
0.145
0.125
0.095
0.055
0.005
-0.055
-0.095
-0.135
-0.155
-0.165
-0.175
-0.165
-0.145
-0.145
-0.145
-0.135
-0.115
-0.105
-0.085
-0.055
-0.055
-0.085
-0.085
-0.085
-0.105
-0.105
-0.125
-0.115
-0.135
-0.145
-0.145
-0.155
-0.145
-0.145
-0.155
-0.145
-0.145
-0.145
-0.155
-0.115
-0.095
-0.105
-0.105
-0.075
-0.045
-0.065
-0.055
-0.075
-0.075
-0.075
-0.105
0.025
0.275
0.635
0.505
-0.295
-0.415
-0.515
-0.535
-0.305
-0.175
-0.125
-0.125
-0.135
-0.115
-0.105
-0.105
-0.085
-0.095
-0.095
-0.075
-0.055
-0.025
-0.015
-0.025
-0.025
-0.015
-0.015
-0.015
0.005
0.005
-0.005
-0.005
0.045
0.055
0.075
0.095
0.125
0.115
0.095
0.055
0.015
-0.035
-0.055
-0.085
-0.105
-0.085
-0.085
-0.075
-0.065
-0.075
-0.065
-0.085
-0.085
-0.085
-0.115
-0.125
-0.135
-0.115
-0.135
-0.135
-0.135
-0.115
-0.125
-0.125
-0.125
-0.145
-0.145
-0.145
-0.145
-0.125
-0.125
-0.105
-0.105
-0.095
-0.065
-0.055
-0.065
-0.085
-0.105
-0.105
-0.105
-0.115
-0.125
-0.135
-0.145
-0.135
-0.155
-0.125
-0.105
-0.105
-0.135
-0.145
-0.155
-0.145
-0.155
-0.125
-0.125
-0.115
-0.075
-0.085
0.095
0.465
0.805
0.395
-0.315
-0.395
-0.465
-0.365
-0.185
-0.075
-0.065
-0.085
-0.095
-0.085
-0.085
-0.065
-0.055
-0.055
-0.055
-0.085
-0.085
-0.065
-0.065
-0.075
-0.065
-0.045
-0.035
0.005
0.045
0.065
0.075
0.115
0.155
0.165
0.175
0.175
0.185
0.185
0.175
0.125
0.065
0.025
-0.015
-0.055
-0.055
-0.065
-0.075
-0.095
-0.115
-0.135
-0.135
-0.145
-0.135
-0.135
-0.115
-0.105
-0.075
-0.055
-0.045
-0.035
-0.045
-0.045
-0.045
-0.045
-0.055
-0.055
-0.085
-0.085
-0.075
-0.065
-0.035
-0.065
0.025
0.365
0.755
0.345
-0.325
-0.465
-0.395
-0.175
-0.055
-0.025
-0.045
-0.055
-0.055
-0.065
-0.065
-0.075
-0.085
-0.095
-0.105
-0.105
-0.085
-0.085
-0.075
-0.055
-0.035
-0.015
-0.015
-0.005
0.025
0.045
0.075
0.105
0.145
0.175
0.215
0.235
0.245
0.235
0.205
0.165
0.115
0.065
0.005
-0.025
-0.065
-0.075
-0.065
-0.075
-0.105
-0.115
-0.115
-0.125
-0.125
-0.115
-0.115
-0.095
-0.075
-0.065
0.035
0.275
0.655
0.565
-0.395
-0.525
-0.535
-0.345
-0.105
-0.015
-0.045
-0.065
-0.085
-0.105
-0.095
-0.095
-0.115
-0.085
-0.085
-0.075
-0.065
-0.075
-0.055
-0.035
-0.035
0.005
0.035
0.075
0.115
0.155
0.195
0.215
0.205
0.195
0.205
0.205
0.195
0.145
0.075
0.045
-0.015
-0.025
-0.045
-0.065
-0.075
-0.075
-0.075
-0.075
-0.075
-0.065
-0.035
-0.005
0.025
0.035
0.035
0.025
-0.015
-0.025
-0.025
-0.025
-0.045
-0.065
-0.075
-0.075
-0.105
-0.105
-0.105
-0.115
-0.105
-0.095
-0.095
-0.095
-0.095
-0.075
-0.055
-0.045
0.005
0.045
0.045
0.035
0.015
0.005
-0.015
-0.035
-0.055
-0.075
-0.075
-0.085
-0.105
-0.095
-0.095
-0.115
-0.105
-0.115
-0.125
-0.095
-0.095
-0.075
-0.055
-0.035
-0.015
0.025
0.045
0.105
0.355
0.735
0.685
-0.085
-0.375
-0.445
-0.295
-0.135
-0.075
-0.065
-0.065
-0.055
-0.075
-0.085
-0.065
-0.055
-0.055
-0.035
-0.025
-0.015
0.025
0.075
0.095
0.085
0.065
0.065
0.085
0.095
0.105
0.095
0.095
0.085
0.095
0.095
0.115
0.135
0.145
0.145
0.135
0.095
0.055
0.035
0.015
0.005
-0.005
-0.005
0.025
0.065
0.045
0.035
0.025
0.025
0.005
-0.015
-0.025
-0.015
-0.025
-0.065
0.055
0.435
0.595
0.095
-0.455
-0.605
-0.365
-0.155
-0.095
-0.065
-0.065
-0.065
-0.045
-0.035
-0.035
-0.035
0.015
0.065
0.075
0.065
0.045
0.055
0.055
0.065
0.055
0.035
-0.005
0.025
0.025
0.035
0.035
0.055
0.065
0.075
0.085
0.095
0.105
0.095
0.055
0.035
0.025
0.005
0.005
-0.015
-0.025
0.015
0.015
0.035
0.075
0.045
0.025
-0.015
-0.025
-0.025
-0.035
-0.055
-0.085
-0.075
-0.085
-0.085
-0.085
-0.105
-0.105
-0.045
0.195
0.515
0.515
-0.295
-0.455
-0.485
-0.465
-0.195
-0.025
0.055
0.065
0.045
0.045
0.015
-0.005
-0.005
-0.005
0.005
-0.015
-0.005
0.025
-0.005
-0.015
0.005
0.005
0.035
0.045
0.065
0.095
0.145
0.135
0.205
0.245
0.305
0.295
0.295
0.255
0.185
0.145
0.095
0.045
0.005
-0.005
-0.055
-0.055
-0.075
-0.085
-0.105
-0.095
-0.075
-0.065
-0.065
-0.105
-0.075
-0.065
-0.055
-0.045
0.015
0.015
0.035
0.045
0.065
0.085
0.085
0.035
0.045
0.245
0.605
0.715
-0.115
-0.465
-0.495
-0.475
-0.265
-0.095
-0.045
-0.075
-0.075
-0.065
-0.055
-0.045
-0.015
-0.005
0.005
0.015
0.065
0.075
0.055
0.065
0.105
0.115
0.115
0.085
0.075
0.065
0.085
0.075
0.105
0.135
0.155
0.145
0.155
0.145
0.115
0.065
0.035
0.005
-0.015
-0.015
0.005
0.005
0.025
0.025
0.055
0.045
0.045
0.045
-0.015
-0.015
-0.045
-0.065
-0.065
-0.055
-0.095
-0.075
-0.075
-0.085
-0.105
-0.105
-0.115
-0.105
-0.105
-0.075
-0.065
-0.045
-0.045
0.005
-0.015
0.045
0.315
0.745
0.775
-0.135
-0.435
-0.495
-0.415
-0.235
-0.095
-0.055
-0.045
-0.065
-0.055
-0.055
-0.055
-0.045
-0.045
-0.045
-0.045
-0.035
-0.045
-0.035
-0.015
-0.005
0.025
0.065
0.085
0.105
0.155
0.205
0.205
0.215
0.215
0.235
0.225
0.225
0.215
0.165
0.135
0.095
0.045
0.005
-0.045
-0.085
-0.095
-0.095
-0.095
-0.105
-0.105
-0.085
-0.065
-0.065
-0.055
-0.025
-0.015
0.005
0.015
-0.005
-0.005
-0.025
-0.045
-0.055
-0.035
-0.055
-0.085
-0.095
-0.085
-0.095
-0.085
-0.095
0.055
0.405
0.775
0.325
-0.385
-0.505
-0.475
-0.245
-0.085
-0.015
0.005
-0.015
-0.005
-0.005
-0.035
-0.025
-0.035
-0.035
-0.035
-0.035
-0.025
-0.035
-0.045
-0.055
-0.035
-0.015
-0.005
0.005
0.045
0.075
0.105
0.145
0.185
0.215
0.235
0.235
0.225
0.215
0.175
0.125
0.065
0.015
-0.035
-0.075
-0.115
-0.135
-0.155
-0.145
-0.145
-0.135
-0.155
-0.155
-0.155
-0.155
-0.165
-0.145
-0.115
-0.095
-0.065
-0.035
-0.005
0.015
-0.005
-0.005
-0.015
-0.025
-0.025
-0.035
-0.055
-0.065
-0.065
-0.095
0.025
0.365
0.735
0.475
-0.335
-0.535
-0.475
-0.225
-0.095
-0.085
-0.055
-0.005
0.015
0.005
-0.015
-0.025
-0.045
-0.045
-0.065
-0.075
-0.075
-0.075
-0.075
-0.085
-0.085
-0.075
-0.065
-0.045
-0.025
-0.005
0.035
0.075
0.125
0.155
0.175
0.195
0.175
0.155
0.105
0.065
0.015
-0.025
-0.055
-0.075
-0.085
-0.105
-0.135
-0.145
-0.145
-0.145
-0.155
-0.155
-0.145
-0.155
-0.145
-0.125
-0.095
-0.075
-0.065
-0.065
0.055
0.375
0.715
0.195
-0.515
-0.655
-0.585
-0.335
-0.165
-0.125
-0.155
-0.145
-0.155
-0.165
-0.155
-0.165
-0.155
-0.155
-0.155
-0.135
-0.125
-0.115
-0.085
-0.075
-0.055
-0.035
0.005
0.035
0.065
0.075
0.065
0.085
0.095
0.095
0.085
0.085
0.065
0.035
-0.025
-0.075
-0.075
-0.125
-0.195
-0.225
-0.205
-0.215
-0.195
-0.245
-0.255
-0.255
-0.255
-0.255
-0.235
-0.185
-0.185
-0.175
-0.125
-0.085
-0.105
-0.105
-0.115
-0.115
-0.145
-0.155
-0.155
-0.175
-0.175
-0.195
-0.165
0.075
0.475
0.335
-0.435
-0.685
-0.665
-0.415
-0.265
-0.215
-0.215
-0.205
-0.195
-0.195
-0.185
-0.125
-0.075
-0.075
-0.095
-0.105
-0.095
-0.125
-0.115
-0.135
-0.135
-0.135
-0.145
-0.135
-0.145
-0.155
-0.165
-0.145
-0.135
-0.125
-0.085
-0.075
-0.055
-0.065
-0.095
-0.115
-0.155
-0.165
-0.195
-0.225
-0.195
-0.165
-0.175
-0.155
-0.165
-0.205
-0.215
-0.215
-0.235
-0.255
-0.295
-0.295
-0.305
-0.315
-0.305
-0.325
-0.335
-0.295
-0.305
-0.155
0.215
0.485
-0.225
-0.735
-0.675
-0.665
-0.445
-0.275
-0.205
-0.215
-0.175
-0.155
-0.135
-0.155
-0.165
-0.155
-0.175
-0.205
-0.235
-0.235
-0.225
-0.225
-0.235
-0.215
-0.205
-0.175
-0.175
-0.155
-0.145
-0.115
-0.095
-0.035
-0.005
0.045
0.045
0.045
0.035
0.015
-0.035
-0.055
-0.075
-0.085
-0.115
-0.145
-0.155
-0.175
-0.195
-0.215
-0.255
-0.275
-0.305
-0.265
-0.225
-0.235
-0.225
-0.245
-0.235
-0.185
-0.185
-0.165
-0.165
-0.145
-0.125
0.095
0.465
0.715
0.105
-0.485
-0.465
-0.545
-0.445
-0.265
-0.125
-0.115
-0.155
-0.175
-0.175
-0.195
-0.165
-0.145
-0.145
-0.165
-0.135
-0.125
-0.125
-0.085
-0.085
-0.075
-0.035
0.005
0.025
0.075
0.105
0.155
0.165
0.175
0.185
0.185
0.145
0.135
0.085
0.035
-0.025
-0.085
-0.145
-0.165
-0.195
-0.215
-0.205
-0.205
-0.205
-0.185
-0.165
-0.135
-0.095
-0.075
-0.055
-0.015
-0.035
-0.025
0.015
0.225
0.675
0.425
-0.535
-0.765
-0.715
-0.425
-0.235
-0.155
-0.155
-0.175
-0.185
-0.165
-0.185
-0.155
-0.155
-0.135
-0.125
-0.115
-0.075
-0.055
-0.035
0.015
0.035
0.065
0.075
0.095
0.115
0.095
0.095
0.095
0.115
0.105
0.115
0.125
0.085
-0.005
-0.065
-0.095
-0.125
-0.165
-0.175
-0.195
-0.225
-0.225
-0.205
-0.215
-0.195
-0.145
-0.125
-0.105
-0.085
-0.095
-0.095
-0.115
-0.095
-0.125
-0.205
-0.195
-0.195
-0.215
-0.205
-0.215
-0.205
-0.225
-0.255
-0.215
-0.225
-0.225
-0.235
-0.065
0.305
0.645
0.325
-0.495
-0.715
-0.715
-0.515
-0.335
-0.255
-0.245
-0.305
-0.255
-0.255
-0.315
-0.365
-0.345
-0.315
-0.315
-0.305
-0.315
-0.305
-0.295
-0.265
-0.225
-0.185
-0.125
-0.065
-0.015
0.035
0.035
0.055
0.095
0.115
0.135
0.175
0.135
0.095
0.025
-0.065
-0.095
-0.085
-0.135
-0.165
-0.195
-0.185
-0.165
-0.155
-0.135
-0.125
-0.095
-0.075
-0.075
-0.105
-0.135
-0.145
-0.145
-0.155
-0.165
-0.175
-0.175
-0.215
-0.225
-0.245
-0.235
-0.245
-0.225
-0.235
-0.255
-0.255
-0.255
-0.255
-0.255
-0.265
-0.245
-0.195
-0.215
-0.195
-0.165
-0.135
-0.115
-0.085
-0.075
-0.055
-0.055
-0.035
-0.065
-0.075
-0.115
-0.125
-0.145
-0.145
-0.125
-0.105
-0.135
-0.155
-0.115
-0.125
-0.125
-0.135
-0.125
-0.105
-0.135
0.025
0.385
0.745
0.255
-0.475
-0.495
-0.425
-0.215
-0.065
-0.025
-0.025
-0.035
-0.045
-0.035
-0.055
-0.045
-0.085
-0.085
-0.045
-0.075
-0.065
-0.065
-0.055
-0.055
-0.025
0.005
0.015
0.055
0.095
0.145
0.155
0.215
0.245
0.255
0.265
0.255
0.255
0.235
0.175
0.155
0.095
0.035
0.005
-0.025
-0.055
-0.085
-0.095
-0.095
-0.075
-0.075
-0.075
-0.065
-0.055
-0.055
-0.045
-0.065
-0.025
0.025
0.055
0.035
0.035
0.005
0.005
-0.015
-0.025
-0.045
-0.055
-0.055
-0.055
-0.065
-0.075
-0.065
-0.075
-0.065
-0.055
-0.035
-0.025
-0.035
-0.035
-0.045
-0.045
-0.015
-0.015
0.005
0.025
0.095
0.115
0.095
0.085
0.075
0.065
0.065
0.015
0.005
0.005
0.025
-0.025
-0.025
0.005
-0.005
-0.025
-0.005
0.015
0.005
0.015
0.025
-0.015
-0.005
0.015
0.035
0.025
0.035
0.275
0.665
0.945
0.365
-0.265
-0.405
-0.335
-0.115
0.035
0.075
0.105
0.095
0.065
0.085
0.115
0.085
0.055
0.085
0.095
0.085
0.105
0.095
0.125
0.135
0.175
0.175
0.215
0.245
0.295
0.335
0.355
0.345
0.345
0.355
0.375
0.375
0.385
0.375
0.335
0.285
0.225
0.175
0.135
0.085
0.065
0.065
0.035
0.015
0.035
0.025
0.025
0.025
0.005
0.025
0.095
0.105
0.115
0.105
0.105
0.075
0.035
0.045
0.035
0.015
0.005
0.025
0.005
0.035
0.015
0.005
0.015
0.005
0.005
0.015
0.015
0.015
0.025
0.015
0.025
0.035
0.045
0.055
0.025
0.055
0.085
0.085
0.075
0.085
0.065
0.065
0.045
0.015
0.015
0.025
0.015
0.005
-0.005
0.005
0.015
0.015
0.005
-0.015
0.015
0.005
-0.015
0.015
0.025
0.055
0.065
0.065
0.045
0.075
0.105
0.155
0.145
0.115
0.125
0.115
0.105
0.085
0.065
0.065
0.065
0.065
0.045
0.055
0.035
0.165
0.485
0.825
0.535
-0.235
-0.235
-0.385
-0.295
-0.085
0.045
0.085
0.085
0.125
0.125
0.135
0.155
0.175
0.185
0.165
0.165
0.145
0.105
0.135
0.115
0.105
0.105
0.125
0.125
0.135
0.135
0.155
0.185
0.175
0.195
0.235
0.265
0.285
0.275
0.285
0.255
0.185
0.165
0.145
0.135
0.175
0.145
0.125
0.105
0.075
0.065
0.065
0.045
0.025
0.015
0.015
0.005
-0.005
-0.005
0.025
0.025
0.035
0.015
0.025
0.025
0.015
0.015
0.045
0.045
0.025
0.105
0.335
0.755
0.795
-0.085
-0.475
-0.515
-0.265
-0.075
0.015
0.025
0.005
-0.005
-0.005
-0.005
0.025
0.035
0.035
0.015
0.005
0.005
0.025
0.015
0.035
0.065
0.095
0.135
0.195
0.225
0.235
0.245
0.265
0.255
0.265
0.285
0.285
0.285
0.265
0.245
0.185
0.105
0.095
0.025
0.015
0.015
0.005
0.015
0.005
-0.025
-0.015
-0.005
0.025
0.015
0.015
-0.005
-0.005
-0.035
-0.055
-0.055
-0.065
-0.095
-0.085
-0.085
-0.115
-0.115
-0.095
-0.115
-0.095
-0.095
-0.085
-0.075
-0.065
-0.025
-0.005
0.045
0.085
0.305
0.675
0.825
0.105
-0.365
-0.425
-0.455
-0.265
-0.095
-0.015
-0.015
-0.035
-0.045
-0.055
-0.065
-0.055
-0.055
-0.055
-0.035
-0.015
-0.005
0.025
0.055
0.065
0.055
0.065
0.075
0.045
0.065
0.075
0.095
0.105
0.105
0.145
0.155
0.145
0.125
0.105
0.075
0.045
0.015
-0.015
-0.015
-0.005
-0.005
-0.005
-0.005
-0.045
-0.035
-0.035
-0.045
-0.045
-0.065
-0.065
-0.065
-0.085
-0.075
-0.085
-0.085
-0.095
-0.095
-0.095
-0.075
-0.055
-0.025
-0.015
-0.005
-0.005
-0.015
-0.025
-0.035
-0.055
-0.065
-0.065
-0.065
-0.065
-0.105
-0.055
0.195
0.615
0.645
-0.215
-0.605
-0.655
-0.485
-0.265
-0.195
-0.155
-0.095
-0.075
-0.055
-0.075
-0.045
-0.005
0.005
-0.005
-0.005
-0.015
-0.015
-0.005
-0.015
-0.015
-0.025
-0.025
-0.005
0.015
0.025
0.035
0.035
0.045
0.065
0.075
0.085
0.105
0.145
0.155
0.125
0.095
0.065
0.045
-0.035
-0.085
-0.085
-0.115
-0.125
-0.145
-0.155
-0.155
-0.155
-0.155
-0.135
-0.145
-0.135
-0.145
-0.145
-0.145
-0.145
-0.135
-0.095
-0.065
-0.035
-0.035
-0.025
0.005
0.005
0.015
-0.015
-0.025
-0.055
-0.065
-0.075
-0.085
-0.095
-0.095
-0.075
-0.075
-0.105
-0.105
-0.105
-0.135
-0.025
0.285
0.695
0.495
-0.365
-0.585
-0.595
-0.325
-0.095
0.005
0.005
-0.015
-0.065
-0.105
-0.085
-0.075
-0.095
-0.105
-0.115
-0.105
-0.115
-0.105
-0.105
-0.105
-0.115
-0.095
-0.085
-0.065
-0.035
-0.025
0.015
0.045
0.095
0.155
0.145
0.165
0.255
0.275
0.255
0.195
0.135
0.065
0.025
-0.045
-0.065
-0.055
-0.095
-0.125
-0.145
-0.145
-0.145
-0.135
-0.135
-0.145
-0.155
-0.155
-0.135
-0.145
-0.135
-0.125
-0.105
-0.085
-0.075
-0.055
-0.005
0.025
0.025
0.005
-0.025
-0.025
-0.025
-0.045
-0.045
-0.065
-0.075
-0.065
-0.095
-0.095
-0.085
-0.085
-0.085
-0.105
-0.075
-0.095
0.005
0.325
0.725
0.415
-0.415
-0.615
-0.515
-0.225
-0.035
0.035
0.025
0.005
-0.045
-0.045
-0.035
-0.055
-0.065
-0.065
-0.045
-0.075
-0.105
-0.045
-0.045
-0.055
-0.025
-0.005
0.025
0.055
0.125
0.175
0.185
0.185
0.175
0.205
0.215
0.205
0.235
0.225
0.175
0.135
0.075
0.015
-0.005
-0.025
-0.055
-0.085
-0.085
-0.065
-0.065
-0.075
-0.055
-0.065
-0.045
-0.015
0.005
-0.055
-0.065
-0.075
-0.095
-0.105
-0.135
-0.145
-0.125
-0.135
-0.155
-0.155
-0.155
-0.155
-0.145
-0.135
-0.115
-0.115
-0.115
-0.115
-0.095
-0.075
-0.085
0.005
0.225
0.585
0.725
-0.025
-0.465
-0.515
-0.465
-0.255
-0.135
-0.085
-0.105
-0.145
-0.125
-0.115
-0.135
-0.145
-0.145
-0.145
-0.145
-0.125
-0.115
-0.105
-0.085
-0.075
-0.045
-0.035
-0.015
0.035
0.065
0.085
0.055
0.065
0.095
0.105
0.115
0.085
0.065
0.035
-0.005
-0.065
-0.115
-0.175
-0.195
-0.225
-0.235
-0.235
-0.235
-0.225
-0.205
-0.185
-0.185
-0.155
-0.125
-0.145
-0.165
-0.205
-0.195
-0.215
-0.225
-0.225
-0.225
-0.245
-0.255
-0.255
-0.265
-0.275
-0.285
-0.275
-0.285
-0.295
-0.295
-0.295
-0.255
-0.225
-0.235
-0.235
-0.225
-0.225
-0.225
-0.215
-0.235
-0.245
-0.265
-0.275
-0.295
-0.305
-0.315
-0.325
-0.315
-0.325
-0.335
-0.345
-0.335
-0.345
-0.335
-0.335
-0.315
-0.305
-0.335
-0.325
-0.315
-0.315
-0.305
-0.275
-0.245
-0.265
-0.265
-0.285
-0.285
-0.305
-0.305
-0.295
-0.305
-0.335
-0.225
0.115
0.475
0.125
-0.615
-0.835
-0.755
-0.485
-0.335
-0.285
-0.255
-0.235
-0.215
-0.215
-0.225
-0.235
-0.255
-0.245
-0.235
-0.245
-0.265
-0.255
-0.255
-0.245
-0.235
-0.245
-0.215
-0.195
-0.215
-0.185
-0.155
-0.125
-0.115
-0.065
-0.035
-0.015
-0.015
0.005
-0.005
-0.025
-0.075
-0.105
-0.165
-0.205
-0.235
-0.235
-0.255
-0.245
-0.255
-0.265
-0.275
-0.275
-0.275
-0.255
-0.245
-0.205
-0.165
-0.175
-0.175
-0.175
-0.195
-0.185
-0.215
-0.105
0.225
0.575
0.175
-0.605
-0.775
-0.675
-0.425
-0.255
-0.205
-0.225
-0.245
-0.245
-0.235
-0.225
-0.195
-0.155
-0.135
-0.135
-0.125
-0.115
-0.115
-0.105
-0.085
-0.085
-0.095
-0.075
-0.055
-0.025
-0.025
0.005
-0.015
0.005
0.015
0.055
0.065
0.065
0.065
0.035
0.025
0.025
-0.025
-0.055
-0.085
-0.105
-0.145
-0.135
-0.145
-0.155
-0.145
-0.145
-0.135
-0.135
-0.125
-0.145
-0.175
-0.165
-0.185
-0.165
-0.135
-0.125
-0.095
-0.065
-0.065
-0.075
-0.095
-0.095
-0.085
-0.105
-0.105
-0.115
-0.125
-0.125
-0.115
-0.135
-0.075
0.155
0.565
0.555
-0.295
-0.605
-0.615
-0.405
-0.155
-0.005
0.025
-0.005
-0.015
-0.005
-0.005
-0.015
-0.015
-0.025
-0.035
-0.035
-0.025
-0.025
-0.015
0.005
0.005
0.005
0.025
0.055
0.085
0.105
0.105
0.135
0.165
0.185
0.215
0.245
0.205
0.195
0.185
0.155
0.085
0.025
-0.005
-0.055
-0.085
-0.115
-0.135
-0.165
-0.165
-0.175
-0.185
-0.165
-0.175
-0.125
-0.125
-0.115
-0.105
-0.115
-0.085
-0.065
-0.015
0.015
0.015
0.015
0.005
-0.005
-0.015
-0.015
-0.015
-0.035
-0.055
-0.065
-0.065
-0.075
-0.055
-0.055
-0.015
-0.015
-0.025
0.005
-0.005
-0.035
-0.005
0.285
0.625
0.625
-0.195
-0.375
-0.425
-0.475
-0.285
-0.105
-0.045
-0.085
-0.105
-0.105
-0.095
-0.125
-0.105
-0.085
-0.065
-0.045
-0.035
0.005
0.025
0.055
0.045
0.065
0.105
0.115
0.115
0.135
0.135
0.145
0.165
0.175
0.175
0.175
0.185
0.195
0.185
0.135
0.075
0.025
0.015
-0.015
-0.025
-0.035
-0.045
-0.065
-0.075
-0.065
-0.045
-0.025
-0.045
-0.065
-0.075
-0.095
-0.095
-0.115
-0.145
-0.115
-0.105
-0.105
0.055
0.395
0.665
-0.065
-0.595
-0.675
-0.515
-0.235
-0.075
-0.055
-0.085
-0.095
-0.045
-0.035
-0.035
-0.065
-0.065
-0.085
-0.075
-0.075
-0.075
-0.075
-0.085
-0.085
-0.075
-0.065
-0.045
-0.015
-0.005
0.025
0.045
0.075
0.115
0.145
0.165
0.175
0.185
0.155
0.115
0.055
-0.005
-0.075
-0.115
-0.125
-0.155
-0.185
-0.195
-0.205
-0.205
-0.225
-0.225
-0.205
-0.205
-0.185
-0.185
-0.165
-0.145
-0.145
-0.115
-0.095
-0.075
-0.065
-0.065
-0.065
-0.065
-0.095
-0.105
-0.105
-0.115
-0.115
-0.125
-0.145
-0.145
-0.145
-0.145
-0.145
-0.135
-0.135
-0.135
-0.125
-0.115
-0.095
-0.075
-0.065
0.045
0.365
0.755
0.505
-0.305
-0.465
-0.515
-0.365
-0.175
-0.075
-0.065
-0.085
-0.125
-0.135
-0.125
-0.135
-0.135
-0.135
-0.115
-0.115
-0.105
-0.085
-0.075
-0.035
-0.005
0.035
0.075
0.115
0.165
0.185
0.175
0.165
0.145
0.155
0.185
0.165
0.185
0.185
0.175
0.155
0.105
0.075
0.035
0.015
-0.015
-0.015
-0.025
0.005
0.005
0.015
0.025
0.055
0.055
0.065
0.065
0.055
0.045
0.005
-0.015
-0.035
-0.035
-0.045
-0.045
-0.045
-0.065
-0.065
-0.075
-0.025
0.165
0.635
0.655
-0.185
-0.455
-0.405
-0.155
0.035
0.075
0.095
0.065
0.065
0.075
0.065
0.065
0.045
0.025
0.015
-0.005
0.015
0.025
0.015
0.025
0.055
0.085
0.095
0.135
0.185
0.225
0.235
0.235
0.235
0.225
0.235
0.235
0.245
0.225
0.185
0.135
0.075
0.025
-0.005
-0.045
-0.075
-0.075
-0.065
-0.075
-0.065
-0.045
-0.045
-0.025
0.005
0.025
0.025
0.005
0.005
0.005
-0.005
-0.005
-0.015
-0.025
-0.035
-0.065
-0.045
-0.035
-0.015
-0.015
-0.035
0.055
0.375
0.735
0.375
-0.345
-0.385
-0.365
-0.205
-0.035
0.015
0.005
-0.015
-0.025
-0.035
-0.045
-0.055
-0.055
-0.055
-0.065
-0.055
-0.045
-0.055
-0.065
-0.035
-0.015
-0.005
0.025
0.075
0.115
0.115
0.115
0.155
0.185
0.195
0.195
0.195
0.215
0.185
0.145
0.105
0.045
-0.005
-0.045
-0.075
-0.095
-0.115
-0.115
-0.115
-0.105
-0.115
-0.105
-0.095
-0.085
-0.065
-0.035
-0.015
-0.005
-0.045
-0.045
-0.075
-0.065
-0.105
-0.115
-0.135
-0.125
-0.145
-0.185
-0.175
-0.185
-0.195
-0.195
-0.175
-0.155
-0.165
-0.185
-0.155
-0.155
-0.145
-0.125
-0.105
-0.085
-0.045
0.005
-0.015
-0.035
-0.095
0.005
0.315
0.665
0.325
-0.455
-0.625
-0.605
-0.385
-0.215
-0.175
-0.165
-0.175
-0.185
-0.185
-0.175
-0.155
-0.135
-0.105
-0.075
-0.045
-0.015
0.025
0.025
0.015
-0.025
-0.025
-0.025
-0.025
-0.035
-0.055
-0.055
-0.045
-0.035
-0.015
0.005
0.025
0.055
0.065
0.055
0.055
0.015
0.015
0.015
-0.015
-0.035
-0.075
-0.065
-0.065
-0.075
-0.065
-0.115
-0.125
-0.165
-0.165
-0.155
-0.175
-0.175
-0.175
-0.185
-0.155
-0.155
-0.135
-0.105
-0.085
-0.075
-0.035
-0.025
-0.035
-0.045
-0.055
-0.055
-0.055
-0.035
-0.045
-0.085
-0.105
-0.125
-0.115
-0.115
-0.105
-0.135
-0.065
0.155
0.535
0.435
-0.415
-0.615
-0.645
-0.445
-0.225
-0.105
-0.075
-0.075
-0.065
-0.025
-0.005
0.015
0.015
0.005
0.025
0.035
0.015
0.005
-0.035
-0.035
-0.035
-0.045
-0.045
-0.045
-0.035
-0.035
-0.035
-0.035
-0.005
0.035
0.055
0.065
0.085
0.095
0.095
0.065
0.045
0.015
-0.015
0.015
-0.005
-0.025
-0.015
-0.035
-0.055
-0.075
-0.115
-0.155
-0.145
-0.155
-0.175
-0.185
-0.205
-0.205
-0.205
-0.205
-0.205
-0.195
-0.185
-0.185
-0.185
-0.155
-0.135
-0.125
-0.075
0.145
0.515
0.605
-0.165
-0.465
-0.505
-0.455
-0.255
-0.125
-0.115
-0.145
-0.145
-0.155
-0.155
-0.155
-0.165
-0.165
-0.155
-0.155
-0.145
-0.135
-0.115
-0.105
-0.085
-0.065
-0.035
0.005
0.055
0.065
0.085
0.115
0.115
0.095
0.115
0.125
0.125
0.105
0.065
0.005
-0.055
-0.105
-0.155
-0.165
-0.185
-0.205
-0.195
-0.195
-0.215
-0.195
-0.185
-0.175
-0.155
-0.145
-0.125
-0.095
-0.035
-0.025
-0.055
-0.065
-0.075
-0.075
-0.085
-0.105
-0.115
-0.135
-0.155
-0.145
-0.155
-0.155
-0.155
-0.145
-0.155
-0.155
-0.165
-0.155
-0.155
-0.155
-0.125
-0.125
-0.115
-0.115
-0.105
-0.065
-0.055
-0.045
-0.045
-0.055
-0.065
-0.065
-0.085
-0.095
-0.115
-0.115
-0.115
-0.105
-0.135
-0.025
0.265
0.605
0.365
-0.375
-0.395
-0.485
-0.455
-0.255
-0.105
-0.045
-0.025
-0.035
-0.035
-0.045
-0.045
-0.055
-0.055
-0.035
-0.035
-0.055
-0.065
-0.075
-0.075
-0.065
-0.065
-0.055
-0.025
-0.005
0.025
0.055
0.085
0.125
0.145
0.165
0.175
0.185
0.185
0.155
0.115
0.065
-0.015
-0.065
-0.105
-0.135
-0.155
-0.175
-0.185
-0.185
-0.185
-0.155
-0.135
-0.135
-0.135
-0.125
-0.105
-0.085
-0.075
-0.045
-0.015
-0.005
0.005
-0.015
-0.025
-0.025
-0.035
-0.055
-0.075
0.075
0.455
0.575
-0.125
-0.525
-0.625
-0.495
-0.265
-0.145
-0.125
-0.135
-0.125
-0.115
-0.095
-0.085
-0.075
-0.035
0.005
0.015
0.015
-0.015
-0.025
-0.025
-0.025
-0.035
-0.035
-0.045
-0.055
-0.065
-0.055
-0.035
0.005
0.025
0.025
0.035
0.035
0.045
0.025
0.005
-0.025
-0.045
-0.055
-0.055
-0.045
-0.045
-0.065
-0.075
-0.085
-0.095
-0.095
-0.105
-0.115
-0.115
-0.135
-0.135
-0.145
-0.145
-0.135
-0.145
-0.155
-0.145
-0.145
-0.145
-0.125
-0.115
-0.095
-0.095
-0.055
-0.025
-0.025
-0.055
-0.065
-0.085
-0.085
-0.105
-0.125
-0.145
-0.165
-0.175
-0.145
-0.145
-0.135
-0.145
-0.155
-0.155
-0.155
-0.155
-0.135
-0.115
-0.095
-0.075
0.135
0.555
0.745
0.165
-0.335
-0.495
-0.435
-0.205
-0.075
-0.055
-0.075
-0.095
-0.105
-0.115
-0.105
-0.095
-0.075
-0.085
-0.095
-0.085
-0.075
-0.055
-0.025
-0.015
0.005
0.035
0.065
0.085
0.085
0.085
0.095
0.105
0.105
0.105
0.085
0.085
0.095
0.095
0.085
0.045
-0.015
-0.035
-0.075
-0.095
-0.095
-0.085
-0.075
-0.055
-0.045
-0.015
-0.005
-0.005
-0.005
-0.015
-0.015
-0.025
-0.035
-0.025
-0.055
-0.065
-0.015
0.205
0.575
0.305
-0.455
-0.545
-0.525
-0.275
-0.085
-0.025
-0.025
-0.015
0.025
0.035
0.005
0.005
-0.005
-0.005
-0.005
-0.025
-0.025
-0.035
-0.045
-0.045
-0.035
-0.035
-0.035
-0.025
-0.005
0.005
0.015
0.045
0.065
0.115
0.175
0.215
0.225
0.205
0.165
0.135
0.085
0.045
0.025
0.005
-0.025
-0.035
-0.045
-0.075
-0.085
-0.095
-0.095
-0.085
-0.085
-0.075
-0.065
-0.035
0.005
0.015
0.015
0.015
-0.005
-0.015
-0.025
-0.035
-0.035
-0.045
-0.065
-0.095
-0.105
-0.105
-0.125
-0.135
-0.125
-0.115
-0.115
-0.105
-0.105
-0.075
-0.035
-0.015
-0.015
-0.025
-0.025
-0.015
-0.025
-0.025
-0.035
-0.045
-0.055
-0.065
-0.055
-0.065
-0.065
-0.055
-0.085
-0.085
-0.075
-0.075
-0.065
-0.065
-0.045
-0.015
0.005
0.015
0.165
0.475
0.695
0.135
-0.285
-0.415
-0.425
-0.225
-0.095
-0.035
-0.035
-0.045
-0.055
-0.065
-0.085
-0.075
-0.055
-0.045
-0.045
-0.025
0.015
0.045
0.055
0.055
0.065
0.075
0.085
0.085
0.095
0.105
0.105
0.135
0.165
0.175
0.165
0.165
0.175
0.195
0.185
0.175
0.165
0.125
0.105
0.085
0.095
0.075
0.055
0.035
0.015
-0.005
-0.015
-0.035
-0.035
-0.065
-0.075
-0.045
-0.035
-0.055
-0.045
-0.065
-0.085
-0.095
-0.095
-0.075
-0.045
-0.025
-0.015
0.025
0.035
0.025
0.005
0.015
-0.005
-0.005
-0.005
-0.025
0.005
-0.015
-0.025
-0.035
-0.015
-0.035
-0.035
-0.045
-0.045
-0.055
-0.025
-0.015
0.025
0.015
0.165
0.475
0.765
0.225
-0.285
-0.245
-0.365
-0.255
-0.075
0.015
0.005
-0.005
-0.035
-0.035
-0.035
-0.045
-0.045
-0.045
-0.035
-0.045
-0.055
-0.015
0.015
0.035
0.065
0.065
0.085
0.115
0.145
0.185
0.215
0.225
0.235
0.245
0.265
0.265
0.265
0.255
0.215
0.165
0.105
0.075
0.015
-0.005
-0.035
-0.025
-0.035
-0.045
-0.055
-0.065
-0.065
-0.055
-0.055
-0.015
0.015
0.045
0.055
0.045
0.105
0.355
0.715
0.475
-0.325
-0.495
-0.545
-0.275
-0.095
-0.015
-0.015
-0.035
-0.035
-0.045
-0.045
-0.055
-0.045
-0.045
-0.035
-0.005
0.005
0.015
0.025
0.035
0.075
0.105
0.115
0.115
0.125
0.135
0.155
0.165
0.185
0.195
0.205
0.205
0.215
0.205
0.165
0.115
0.065
0.015
-0.015
-0.035
-0.025
-0.035
-0.025
-0.005
0.015
0.055
0.045
0.025
0.025
0.035
0.035
0.015
-0.015
-0.005
-0.015
-0.015
-0.015
-0.005
-0.005
-0.025
-0.035
-0.025
-0.035
-0.035
-0.035
-0.015
-0.015
-0.025
-0.015
0.005
-0.005
-0.005
0.005
0.015
0.045
0.045
0.035
0.035
-0.005
0.005
0.015
0.015
-0.015
0.025
0.245
0.665
0.685
-0.115
-0.415
-0.465
-0.305
-0.145
-0.045
-0.025
-0.045
-0.055
-0.045
-0.025
-0.025
-0.025
0.005
0.015
0.005
0.025
0.055
0.065
0.065
0.075
0.075
0.065
0.075
0.075
0.095
0.105
0.105
0.125
0.145
0.165
0.155
0.165
0.185
0.165
0.165
0.155
0.085
0.055
0.045
0.035
0.005
0.005
-0.005
0.045
0.025
0.035
-0.005
-0.025
-0.005
-0.025
-0.025
-0.045
-0.035
-0.025
-0.045
-0.065
-0.055
-0.035
-0.045
-0.055
-0.055
-0.055
-0.045
-0.035
-0.005
0.015
0.045
0.035
0.085
0.055
0.155
0.445
0.755
0.425
-0.245
-0.355
-0.365
-0.205
-0.085
0.005
-0.015
-0.025
-0.005
-0.025
-0.025
-0.015
-0.015
-0.005
-0.025
0.005
0.035
0.035
0.035
0.065
0.075
0.135
0.125
0.155
0.175
0.145
0.155
0.155
0.165
0.145
0.155
0.155
0.155
0.155
0.115
0.055
0.015
-0.025
-0.055
-0.085
-0.095
-0.105
-0.115
-0.105
-0.115
-0.105
-0.095
-0.095
-0.095
-0.085
-0.055
-0.045
-0.035
-0.025
-0.025
-0.035
-0.035
-0.035
-0.075
-0.085
-0.085
-0.105
0.045
0.365
0.615
-0.065
-0.535
-0.445
-0.515
-0.415
-0.245
-0.135
-0.145
-0.115
-0.115
-0.085
-0.095
-0.075
-0.055
-0.005
-0.005
-0.005
-0.015
-0.015
-0.005
-0.035
-0.005
-0.005
0.015
0.015
0.005
0.005
0.005
0.005
0.035
0.035
0.045
0.055
0.055
0.025
-0.015
-0.055
-0.085
-0.085
-0.095
-0.085
-0.115
-0.145
-0.175
-0.175
-0.155
-0.175
-0.175
-0.215
-0.235
-0.235
-0.255
-0.245
-0.235
-0.255
-0.255
-0.255
-0.245
-0.235
-0.235
-0.225
-0.205
-0.185
-0.175
-0.145
-0.155
-0.175
-0.185
-0.195
-0.185
-0.185
-0.185
-0.205
-0.215
-0.225
-0.255
-0.275
-0.275
-0.255
-0.245
-0.255
-0.245
-0.235
-0.235
-0.225
-0.195
-0.195
-0.195
-0.225
-0.225
-0.235
-0.255
-0.265
-0.265
-0.265
-0.265
-0.265
-0.245
-0.255
-0.285
-0.285
-0.285
-0.295
-0.265
-0.265
-0.265
-0.265
-0.245
-0.235
-0.205
-0.175
-0.165
-0.145
-0.125
-0.115
-0.135
-0.145
-0.155
-0.165
-0.015
0.375
0.655
0.125
-0.465
-0.675
-0.535
-0.345
-0.245
-0.245
-0.235
-0.235
-0.265
-0.245
-0.235
-0.225
-0.195
-0.185
-0.185
-0.165
-0.155
-0.115
-0.115
-0.115
-0.125
-0.115
-0.125
-0.105
-0.125
-0.125
-0.105
-0.115
-0.105
-0.085
-0.085
-0.075
-0.055
-0.045
-0.015
-0.005
-0.015
-0.025
-0.045
-0.065
-0.065
-0.075
-0.085
-0.095
-0.115
-0.115
-0.115
-0.125
-0.135
-0.155
-0.175
-0.185
-0.185
-0.195
-0.195
-0.205
-0.215
-0.215
-0.205
-0.205
-0.205
-0.195
-0.175
-0.145
-0.145
-0.145
-0.115
-0.085
-0.075
-0.105
-0.115
-0.115
-0.115
-0.125
-0.135
-0.145
-0.145
-0.145
-0.165
-0.165
-0.175
-0.175
-0.175
-0.165
-0.165
-0.185
-0.185
-0.175
-0.175
-0.165
-0.155
-0.125
-0.075
-0.075
-0.055
-0.025
-0.005
-0.025
-0.035
-0.045
-0.045
-0.075
-0.085
-0.095
-0.115
-0.125
-0.125
-0.135
-0.125
-0.145
-0.145
-0.145
-0.195
-0.015
0.395
0.665
0.235
-0.335
-0.485
-0.405
-0.225
-0.105
-0.055
-0.005
-0.005
-0.015
-0.025
-0.035
-0.035
-0.045
-0.035
-0.035
-0.035
-0.055
-0.065
-0.075
-0.085
-0.085
-0.065
-0.045
-0.045
-0.025
0.005
0.025
0.065
0.085
0.125
0.175
0.215
0.215
0.205
0.205
0.175
0.135
0.095
0.055
0.005
-0.035
-0.065
-0.095
-0.105
-0.105
-0.095
-0.095
-0.105
-0.105
-0.095
-0.085
-0.085
-0.075
-0.045
-0.035
-0.025
-0.045
-0.065
-0.085
-0.085
-0.105
-0.115
-0.125
-0.135
-0.155
-0.165
-0.175
-0.175
-0.175
-0.165
-0.165
-0.125
-0.095
-0.095
-0.065
-0.035
0.005
0.015
-0.005
-0.045
-0.075
-0.025
-0.015
-0.065
-0.065
-0.075
-0.075
-0.095
-0.125
-0.125
-0.105
-0.145
-0.125
-0.145
0.005
0.355
0.665
0.175
-0.385
-0.545
-0.435
-0.155
-0.025
-0.015
-0.025
-0.045
-0.045
-0.065
-0.075
-0.085
-0.075
-0.065
-0.085
-0.095
-0.105
-0.095
-0.095
-0.085
-0.085
-0.075
-0.065
-0.035
-0.015
0.025
0.045
0.085
0.105
0.155
0.205
0.245
0.245
0.235
0.225
0.225
0.165
0.095
0.055
0.015
-0.035
-0.065
-0.095
-0.095
-0.105
-0.105
-0.095
-0.085
-0.095
-0.115
-0.135
-0.115
-0.105
-0.095
-0.085
-0.065
-0.045
-0.025
-0.045
-0.055
-0.065
-0.075
-0.075
-0.085
-0.095
-0.105
-0.115
-0.125
-0.125
-0.125
-0.125
-0.105
-0.095
-0.085
-0.075
-0.085
-0.085
-0.075
-0.065
-0.015
0.015
0.005
-0.005
-0.025
-0.025
0.165
0.525
0.685
-0.015
-0.445
-0.575
-0.465
-0.235
-0.125
-0.115
-0.115
-0.125
-0.115
-0.105
-0.075
-0.055
-0.045
-0.055
-0.075
-0.085
-0.075
-0.055
-0.035
0.005
0.055
0.045
0.045
0.055
0.065
0.075
0.075
0.085
0.095
0.105
0.115
0.125
0.125
0.125
0.115
0.075
0.055
0.005
-0.005
-0.055
-0.105
-0.115
-0.105
-0.085
-0.035
-0.025
-0.015
-0.035
-0.055
-0.065
-0.055
-0.055
-0.075
-0.085
-0.095
-0.095
-0.105
-0.105
-0.115
-0.125
-0.115
-0.115
-0.115
-0.085
-0.085
-0.095
-0.045
-0.005
-0.005
-0.045
-0.075
-0.085
-0.095
-0.115
-0.105
-0.115
-0.115
-0.135
-0.125
-0.135
-0.135
-0.125
-0.125
-0.125
-0.115
-0.095
-0.105
-0.045
0.215
0.635
0.395
-0.265
-0.435
-0.445
-0.215
-0.075
-0.045
-0.055
-0.075
-0.085
-0.085
-0.105
-0.095
-0.105
-0.105
-0.095
-0.095
-0.075
-0.055
-0.055
-0.035
0.005
0.025
0.045
0.035
0.035
0.065
0.065
0.085
0.105
0.115
0.115
0.115
0.105
0.085
0.065
0.025
-0.005
-0.055
-0.115
-0.135
-0.125
-0.115
-0.115
-0.105
-0.055
-0.055
-0.045
-0.045
-0.045
-0.045
-0.055
-0.055
-0.055
-0.065
-0.075
-0.065
-0.065
-0.055
-0.075
-0.095
-0.105
-0.115
-0.135
-0.125
-0.115
-0.085
-0.035
-0.025
-0.045
-0.065
-0.095
-0.085
-0.095
-0.075
-0.085
-0.095
-0.115
-0.125
-0.145
-0.135
-0.115
-0.125
-0.135
-0.135
-0.135
-0.125
-0.115
-0.105
-0.075
0.165
0.555
0.575
-0.105
-0.345
-0.445
-0.375
-0.165
-0.055
-0.035
-0.045
-0.065
-0.075
-0.065
-0.055
-0.075
-0.075
-0.095
-0.105
-0.095
-0.105
-0.105
-0.095
-0.075
-0.055
-0.045
-0.015
0.035
0.055
0.055
0.075
0.075
0.095
0.085
0.115
0.135
0.125
0.085
0.055
0.015
-0.025
-0.075
-0.105
-0.135
-0.145
-0.155
-0.155
-0.145
-0.135
-0.125
-0.105
-0.085
-0.055
-0.035
-0.035
-0.045
-0.045
-0.055
-0.075
-0.085
-0.095
-0.105
-0.115
-0.125
-0.125
-0.125
-0.135
-0.125
-0.125
-0.115
-0.145
-0.035
0.295
0.605
0.125
-0.365
-0.455
-0.455
-0.235
-0.105
-0.075
-0.095
-0.115
-0.135
-0.145
-0.155
-0.155
-0.155
-0.155
-0.155
-0.155
-0.155
-0.135
-0.135
-0.115
-0.095
-0.055
-0.015
0.025
0.055
0.085
0.095
0.095
0.125
0.145
0.155
0.155
0.155
0.125
0.105
0.065
0.025
-0.015
-0.065
-0.085
-0.095
-0.115
-0.115
-0.115
-0.135
-0.125
-0.095
-0.055
-0.055
-0.075
-0.095
-0.095
-0.095
-0.105
-0.125
-0.135
-0.145
-0.155
-0.155
-0.155
-0.155
-0.145
-0.145
-0.135
-0.145
-0.155
-0.145
-0.135
-0.125
-0.105
-0.055
-0.035
-0.045
-0.055
-0.065
-0.055
-0.055
-0.065
-0.075
-0.075
-0.085
-0.095
-0.105
-0.095
-0.085
-0.075
-0.085
-0.095
-0.105
-0.105
-0.085
-0.065
-0.055
-0.055
-0.025
-0.015
-0.025
-0.045
-0.055
-0.065
-0.065
-0.085
-0.085
-0.095
-0.135
0.025
0.375
0.585
0.025
-0.435
-0.585
-0.525
-0.295
-0.165
-0.135
-0.105
-0.095
-0.075
-0.055
-0.035
0.015
0.015
0.015
0.015
0.025
0.035
0.025
0.025
0.025
0.015
0.015
0.015
0.005
0.015
0.015
0.025
0.035
0.035
0.055
0.075
0.115
0.215
0.235
0.225
0.205
0.145
0.105
0.055
0.025
-0.005
-0.025
-0.055
-0.075
-0.115
-0.115
-0.115
-0.135
-0.135
-0.145
-0.135
-0.135
-0.125
-0.125
-0.115
-0.055
-0.015
0.005
-0.005
-0.005
-0.015
-0.015
-0.015
-0.015
-0.015
-0.025
-0.015
-0.035
-0.055
-0.065
-0.055
-0.065
-0.065
-0.075
-0.085
-0.085
-0.065
-0.085
-0.075
-0.055
-0.015
0.045
-0.005
0.015
0.255
0.595
0.415
-0.295
-0.415
-0.495
-0.395
-0.205
-0.105
-0.095
-0.105
-0.105
-0.115
-0.105
-0.105
-0.095
-0.085
-0.095
-0.085
-0.085
-0.075
-0.055
-0.045
-0.035
-0.005
0.015
0.035
0.045
0.115
0.145
0.145
0.175
0.175
0.175
0.215
0.225
0.225
0.205
0.185
0.135
0.065
0.045
0.015
-0.005
-0.025
-0.025
-0.015
-0.025
-0.045
-0.065
-0.075
-0.075
-0.065
-0.075
-0.065
-0.055
-0.025
-0.005
-0.005
-0.005
-0.025
-0.035
-0.035
-0.055
-0.045
-0.055
-0.045
-0.055
-0.075
-0.075
-0.075
-0.075
-0.085
-0.065
-0.065
-0.065
-0.055
-0.045
-0.035
-0.035
-0.035
-0.005
0.045
0.055
0.035
0.025
0.025
0.015
-0.015
-0.025
-0.025
-0.015
-0.015
-0.025
-0.025
-0.025
-0.035
-0.035
-0.025
-0.025
-0.015
-0.025
-0.005
0.005
0.005
-0.005
0.025
0.075
0.075
0.055
0.055
0.045
0.025
0.005
-0.015
-0.025
-0.045
-0.055
-0.065
-0.065
-0.065
-0.065
-0.055
-0.045
-0.025
0.165
0.515
0.785
0.265
-0.265
-0.245
-0.315
-0.165
0.005
0.085
0.075
0.055
0.045
0.035
0.025
0.015
0.005
0.005
0.005
0.015
0.005
0.015
0.015
0.015
0.035
0.045
0.045
0.055
0.095
0.135
0.165
0.185
0.195
0.215
0.245
0.245
0.235
0.235
0.225
0.205
0.165
0.125
0.065
0.025
-0.015
-0.035
-0.045
-0.045
-0.065
-0.075
-0.085
-0.095
-0.085
-0.075
-0.075
-0.055
-0.045
-0.015
0.025
0.045
0.065
0.095
0.105
0.095
0.065
0.045
0.045
0.035
0.005
-0.005
-0.015
-0.025
-0.035
-0.045
-0.055
-0.065
-0.065
-0.065
-0.055
-0.055
-0.055
-0.035
-0.015
-0.005
-0.005
0.055
0.095
0.065
0.035
0.025
0.005
-0.005
-0.035
-0.055
-0.065
-0.085
-0.085
-0.095
-0.105
-0.095
-0.105
-0.095
-0.085
-0.075
-0.065
-0.065
0.005
0.295
0.725
0.605
-0.085
-0.335
-0.425
-0.225
-0.045
0.005
0.015
0.005
-0.015
-0.025
-0.035
-0.045
-0.035
-0.035
-0.045
-0.045
-0.045
-0.045
-0.035
-0.015
0.015
0.045
0.085
0.115
0.135
0.125
0.125
0.125
0.135
0.135
0.135
0.145
0.145
0.155
0.145
0.135
0.125
0.085
0.035
0.005
-0.015
-0.025
-0.015
-0.015
0.005
0.045
0.055
0.045
0.035
0.025
0.005
0.005
-0.005
-0.025
-0.035
-0.035
-0.035
-0.045
-0.045
-0.045
-0.045
-0.055
-0.065
-0.065
-0.055
-0.055
-0.025
0.025
0.035
0.015
0.005
-0.005
-0.015
-0.015
-0.025
-0.045
-0.045
-0.055
-0.065
-0.065
-0.085
-0.085
0.115
0.495
0.645
-0.095
-0.445
-0.535
-0.375
-0.145
-0.035
-0.035
-0.025
0.005
0.045
0.035
0.015
-0.005
-0.015
-0.015
-0.015
-0.025
-0.025
-0.015
-0.005
0.005
0.005
0.005
0.005
0.015
0.035
0.055
0.055
0.085
0.095
0.115
0.135
0.185
0.225
0.235
0.205
0.165
0.115
0.075
0.015
-0.045
-0.095
-0.115
-0.115
-0.115
-0.125
-0.125
-0.125
-0.135
-0.135
-0.135
-0.115
-0.115
-0.105
-0.095
-0.085
-0.075
-0.075
-0.025
0.015
0.015
0.085
0.335
0.655
0.295
-0.405
-0.495
-0.565
-0.325
-0.145
-0.075
-0.105
-0.135
-0.135
-0.145
-0.135
-0.125
-0.135
-0.115
-0.105
-0.095
-0.085
-0.045
-0.015
0.005
-0.015
-0.015
-0.015
-0.005
-0.005
0.015
0.025
0.045
0.085
0.105
0.115
0.125
0.105
0.095
0.085
0.045
0.005
-0.025
-0.055
-0.075
-0.075
-0.045
-0.045
-0.065
-0.095
-0.115
-0.135
-0.145
-0.165
-0.165
-0.165
-0.165
-0.165
-0.165
-0.165
-0.145
-0.135
-0.115
-0.115
-0.145
-0.155
-0.155
-0.135
-0.135
-0.145
-0.105
-0.055
-0.055
-0.085
-0.095
-0.095
-0.095
-0.125
-0.135
-0.155
-0.165
-0.175
-0.175
-0.175
-0.175
-0.175
-0.165
-0.135
-0.145
-0.045
0.255
0.575
0.265
-0.405
-0.535
-0.535
-0.285
-0.115
-0.085
-0.085
-0.115
-0.135
-0.145
-0.155
-0.155
-0.165
-0.175
-0.175
-0.185
-0.185
-0.165
-0.145
-0.135
-0.115
-0.105
-0.105
-0.105
-0.085
-0.065
-0.045
-0.015
0.015
0.025
0.055
0.045
0.035
0.055
0.055
0.025
-0.015
-0.075
-0.105
-0.165
-0.185
-0.195
-0.195
-0.185
-0.165
-0.175
-0.205
-0.215
-0.225
-0.205
-0.195
-0.175
-0.135
-0.135
-0.135
-0.155
-0.175
-0.175
-0.185
-0.195
-0.205
-0.215
-0.225
-0.235
-0.255
-0.245
-0.265
-0.255
-0.265
-0.225
-0.235
-0.215
-0.205
-0.215
-0.225
-0.195
-0.165
-0.155
-0.185
-0.195
-0.215
-0.205
-0.195
-0.225
-0.215
-0.215
-0.275
-0.165
0.105
0.425
0.075
-0.555
-0.505
-0.615
-0.525
-0.345
-0.255
-0.225
-0.225
-0.185
-0.135
-0.135
-0.155
-0.165
-0.185
-0.185
-0.205
-0.215
-0.225
-0.225
-0.235
-0.225
-0.215
-0.205
-0.195
-0.185
-0.165
-0.135
-0.125
-0.105
-0.085
-0.045
0.005
0.035
0.045
0.015
-0.015
-0.055
-0.115
-0.155
-0.195
-0.225
-0.255
-0.275
-0.275
-0.295
-0.295
-0.285
-0.295
-0.285
-0.285
-0.285
-0.265
-0.255
-0.235
-0.235
-0.235
-0.235
-0.215
-0.195
-0.165
-0.165
-0.175
-0.185
-0.195
-0.215
-0.235
-0.245
-0.255
-0.265
-0.275
-0.265
-0.265
-0.275
-0.265
-0.265
-0.275
-0.265
-0.235
-0.215
-0.235
-0.245
-0.225
-0.225
-0.215
-0.195
-0.185
-0.145
-0.155
-0.155
-0.165
-0.175
-0.185
-0.195
-0.215
-0.205
-0.205
-0.195
-0.195
-0.195
-0.195
-0.215
-0.165
0.095
0.495
0.485
-0.255
-0.515
-0.615
-0.485
-0.265
-0.145
-0.105
-0.075
-0.045
-0.045
-0.065
-0.105
-0.095
-0.095
-0.105
-0.115
-0.125
-0.125
-0.115
-0.115
-0.115
-0.085
-0.065
-0.055
-0.065
-0.055
-0.025
-0.005
0.025
0.055
0.105
0.145
0.165
0.175
0.165
0.135
0.105
0.075
0.025
-0.015
-0.055
-0.085
-0.115
-0.125
-0.125
-0.125
-0.115
-0.115
-0.135
-0.145
-0.145
-0.145
-0.125
-0.105
-0.075
-0.055
-0.045
-0.025
0.005
0.015
0.015
0.005
-0.015
-0.015
-0.025
-0.035
-0.055
-0.055
-0.065
-0.065
-0.075
-0.085
-0.085
-0.085
-0.085
-0.075
-0.085
-0.075
-0.065
-0.055
-0.055
-0.035
-0.035
-0.015
-0.005
0.045
0.215
0.575
0.785
0.225
-0.345
-0.445
-0.435
-0.235
-0.095
-0.045
-0.045
-0.065
-0.075
-0.075
-0.075
-0.055
-0.055
-0.045
-0.025
0.005
0.015
0.025
0.055
0.115
0.125
0.115
0.115
0.125
0.145
0.145
0.135
0.135
0.145
0.155
0.165
0.175
0.185
0.175
0.155
0.125
0.085
0.065
0.035
0.025
0.035
0.035
0.045
0.065
0.055
0.035
0.035
0.035
0.035
0.015
-0.035
-0.045
-0.045
-0.045
-0.065
-0.065
-0.055
-0.045
-0.045
-0.035
-0.015
-0.015
0.125
0.475
0.805
0.285
-0.335
-0.465
-0.415
-0.155
-0.005
0.035
0.005
-0.025
-0.045
-0.045
-0.045
-0.035
-0.035
-0.025
-0.025
0.005
0.005
0.025
0.055
0.085
0.105
0.105
0.105
0.115
0.115
0.135
0.135
0.145
0.165
0.165
0.145
0.145
0.135
0.135
0.105
0.075
0.035
0.005
-0.005
-0.025
-0.025
-0.025
-0.005
0.025
0.035
0.055
0.045
0.015
0.005
-0.005
-0.035
-0.065
-0.085
-0.095
-0.085
-0.105
-0.105
-0.105
-0.105
-0.105
-0.105
-0.115
-0.105
-0.115
-0.105
-0.085
-0.075
-0.045
-0.075
-0.075
-0.045
-0.005
0.025
-0.015
-0.045
-0.045
-0.055
-0.075
-0.075
-0.115
-0.115
-0.115
-0.125
-0.145
-0.135
-0.125
-0.145
-0.135
-0.145
-0.115
-0.125
-0.145
-0.125
-0.145
-0.085
0.165
0.505
0.465
-0.185
-0.375
-0.515
-0.425
-0.165
-0.025
-0.005
-0.025
-0.035
-0.035
-0.055
-0.085
-0.095
-0.095
-0.105
-0.115
-0.135
-0.135
-0.125
-0.125
-0.125
-0.115
-0.125
-0.095
-0.085
-0.065
-0.025
-0.025
-0.005
0.025
0.035
0.055
0.115
0.135
0.135
0.095
0.095
0.065
0.045
0.035
0.015
-0.035
-0.045
-0.085
-0.095
-0.135
-0.145
-0.155
-0.165
-0.145
-0.165
-0.165
-0.155
-0.165
-0.145
-0.175
-0.175
-0.175
-0.185
-0.175
-0.155
-0.155
-0.155
-0.145
-0.125
-0.085
-0.065
-0.065
-0.075
-0.105
-0.115
-0.135
-0.105
-0.115
-0.135
-0.125
-0.115
-0.125
-0.135
-0.135
-0.135
-0.135
-0.145
-0.135
-0.145
-0.155
-0.135
-0.125
-0.125
-0.115
-0.115
-0.115
-0.095
-0.075
-0.055
-0.045
-0.055
-0.055
-0.085
-0.095
-0.095
-0.125
-0.125
-0.115
-0.115
-0.125
-0.125
-0.105
-0.105
-0.115
-0.125
-0.125
-0.105
-0.115
-0.095
-0.085
-0.065
-0.065
-0.055
-0.025
-0.005
-0.015
-0.025
-0.045
-0.055
-0.065
-0.075
-0.065
-0.065
-0.055
-0.055
-0.065
-0.035
-0.045
0.035
0.365
0.755
0.375
-0.375
-0.355
-0.485
-0.395
-0.185
-0.035
0.025
0.055
0.035
0.015
0.015
-0.005
-0.025
-0.025
-0.005
-0.015
-0.015
-0.005
0.005
0.005
0.005
0.005
0.005
0.035
0.035
0.055
0.075
0.085
0.105
0.135
0.165
0.205
0.235
0.265
0.265
0.225
0.195
0.155
0.135
0.095
0.045
0.005
-0.035
-0.065
-0.065
-0.065
-0.065
-0.065
-0.065
-0.065
-0.055
-0.065
-0.065
-0.055
-0.035
-0.035
-0.005
0.025
0.055
0.075
0.175
0.455
0.805
0.465
-0.365
-0.635
-0.575
-0.235
-0.075
-0.045
-0.045
-0.065
-0.065
-0.055
-0.065
-0.055
-0.065
-0.055
-0.035
-0.005
0.015
0.045
0.065
0.105
0.095
0.095
0.105
0.105
0.115
0.115
0.115
0.125
0.135
0.145
0.165
0.165
0.175
0.165
0.155
0.115
0.065
0.045
0.055
0.035
0.035
0.035
0.025
0.005
-0.005
-0.015
-0.015
-0.045
0.015
0.265
0.605
0.135
-0.565
-0.615
-0.525
-0.265
-0.075
-0.015
-0.035
-0.035
0.005
0.045
0.045
0.025
0.005
-0.015
-0.015
-0.035
-0.045
-0.035
-0.035
-0.015
-0.025
-0.035
-0.015
-0.015
-0.005
0.025
0.045
0.075
0.095
0.145
0.185
0.235
0.235
0.215
0.185
0.145
0.105
0.055
0.015
-0.025
-0.055
-0.065
-0.075
-0.075
-0.085
-0.095
-0.085
-0.085
-0.085
-0.055
-0.045
-0.015
0.015
0.025
0.045
0.215
0.525
0.835
0.355
-0.435
-0.495
-0.525
-0.305
-0.105
-0.035
-0.025
-0.045
-0.055
-0.065
-0.055
-0.065
-0.065
-0.055
-0.035
-0.015
-0.035
-0.035
-0.005
0.045
0.075
0.105
0.115
0.115
0.105
0.125
0.135
0.145
0.145
0.155
0.165
0.175
0.175
0.175
0.155
0.115
0.095
0.045
0.045
0.015
0.005
0.015
0.015
0.015
-0.015
-0.025
-0.035
-0.035
-0.045
-0.065
-0.065
-0.065
-0.085
-0.075
-0.075
-0.075
-0.075
-0.095
-0.085
-0.075
-0.065
-0.045
-0.015
-0.005
0.005
0.005
0.015
0.045
0.045
0.035
0.035
0.045
0.025
0.025
0.225
0.595
0.675
-0.005
-0.385
-0.465
-0.395
-0.185
-0.065
-0.045
-0.055
-0.065
-0.075
-0.065
-0.045
-0.025
-0.035
-0.035
-0.015
-0.005
-0.005
0.015
0.025
0.055
0.085
0.115
0.105
0.095
0.085
0.085
0.085
0.105
0.115
0.115
0.115
0.125
0.135
0.135
0.115
0.085
0.055
0.045
0.015
-0.015
-0.035
-0.035
-0.035
-0.025
0.005
0.025
0.045
0.035
0.015
-0.005
-0.015
-0.025
-0.035
-0.045
-0.045
-0.065
-0.045
-0.035
-0.045
-0.045
-0.045
-0.055
-0.045
-0.045
-0.055
-0.045
-0.025
-0.015
-0.025
0.015
0.045
0.025
0.005
-0.005
-0.025
-0.045
-0.065
-0.085
-0.095
-0.085
-0.095
-0.095
-0.085
-0.115
0.025
0.405
0.575
-0.045
-0.445
-0.585
-0.495
-0.235
-0.055
0.025
0.065
0.045
0.015
0.005
0.015
0.005
0.005
-0.015
-0.025
-0.055
-0.055
-0.055
-0.065
-0.055
-0.035
-0.045
-0.035
-0.025
-0.005
0.005
0.035
0.045
0.065
0.075
0.115
0.185
0.225
0.245
0.225
0.195
0.155
0.105
0.065
0.015
-0.035
-0.065
-0.095
-0.095
-0.105
-0.115
-0.105
-0.115
-0.105
0.035
0.445
0.605
0.185
-0.535
-0.795
-0.365
-0.075
0.005
0.025
-0.035
-0.065
-0.045
-0.065
-0.085
-0.085
-0.095
-0.095
-0.075
-0.125
-0.105
-0.105
-0.095
-0.085
-0.085
-0.055
-0.045
-0.055
-0.025
-0.005
0.015
0.045
0.065
0.085
0.115
0.125
0.135
0.125
0.085
0.025
-0.015
-0.045
-0.085
-0.095
-0.105
-0.115
-0.125
-0.115
-0.115
-0.105
-0.115
-0.115
-0.105
-0.115
-0.095
-0.075
-0.045
-0.065
-0.075
-0.055
-0.025
0.175
0.485
0.735
0.065
-0.525
-0.435
-0.555
-0.465
-0.275
-0.145
-0.115
-0.125
-0.125
-0.135
-0.125
-0.135
-0.115
-0.125
-0.105
-0.105
-0.095
-0.055
-0.015
0.005
0.045
0.025
0.055
0.105
0.095
0.095
0.095
0.105
0.105
0.105
0.125
0.125
0.125
0.105
0.075
0.025
-0.025
-0.075
-0.095
-0.125
-0.135
-0.145
-0.135
-0.135
-0.125
-0.105
-0.065
-0.055
-0.025
-0.025
-0.025
-0.055
-0.055
-0.065
-0.065
-0.075
-0.085
-0.085
-0.095
-0.115
-0.115
-0.135
-0.135
-0.135
-0.135
-0.135
-0.135
-0.135
-0.125
-0.125
-0.125
-0.115
-0.085
-0.005
0.005
-0.035
-0.055
-0.065
-0.055
-0.055
-0.065
-0.085
-0.075
-0.075
-0.085
-0.085
-0.085
-0.085
-0.095
-0.095
-0.105
-0.105
-0.095
-0.095
-0.085
-0.095
-0.045
-0.005
-0.005
-0.015
-0.035
-0.045
-0.035
-0.045
-0.045
-0.065
-0.075
-0.085
-0.095
-0.095
-0.085
-0.075
-0.065
-0.075
-0.065
-0.085
0.045
0.385
0.785
0.435
-0.265
-0.455
-0.435
-0.245
-0.115
-0.055
-0.025
-0.025
-0.035
-0.045
-0.045
-0.045
-0.055
-0.065
-0.055
-0.055
-0.045
-0.045
-0.055
-0.055
-0.035
-0.015
0.015
0.025
0.065
0.105
0.105
0.115
0.105
0.105
0.115
0.125
0.125
0.145
0.145
0.145
0.135
0.095
0.065
0.025
0.005
-0.015
-0.045
-0.035
-0.045
-0.045
-0.025
0.015
0.055
0.065
0.055
0.045
0.025
0.035
0.035
0.035
0.025
0.025
0.015
0.005
-0.035
-0.035
-0.045
-0.045
-0.045
-0.035
-0.045
-0.045
-0.025
-0.005
0.015
0.005
-0.015
-0.035
-0.035
-0.035
-0.055
-0.055
-0.045
-0.055
-0.065
-0.065
-0.085
-0.095
-0.095
-0.095
-0.085
-0.065
-0.045
-0.025
-0.005
0.025
0.015
-0.015
0.035
0.285
0.705
0.705
-0.085
-0.455
-0.545
-0.365
-0.125
-0.055
-0.045
-0.045
-0.045
-0.045
-0.055
-0.065
-0.045
-0.005
0.045
0.065
0.035
0.015
0.015
0.025
0.015
0.015
0.025
0.025
0.035
0.045
0.055
0.065
0.085
0.105
0.115
0.135
0.135
0.145
0.135
0.145
0.165
0.175
0.135
0.075
0.035
0.015
-0.005
-0.025
-0.035
-0.045
-0.055
-0.065
-0.075
-0.075
-0.085
-0.085
-0.065
-0.065
-0.055
-0.015
0.185
0.545
0.615
-0.185
-0.475
-0.555
-0.305
-0.105
-0.035
-0.045
-0.075
-0.085
-0.085
-0.095
-0.095
-0.075
-0.085
-0.075
-0.075
-0.065
-0.035
-0.025
-0.005
0.025
0.045
0.075
0.105
0.155
0.155
0.135
0.135
0.135
0.135
0.145
0.155
0.165
0.175
0.145
0.125
0.065
0.025
-0.015
-0.035
-0.065
-0.065
-0.065
-0.075
-0.065
-0.075
-0.055
-0.035
-0.025
-0.025
-0.035
-0.005
-0.005
-0.015
-0.035
-0.055
-0.065
-0.065
-0.065
-0.075
-0.085
-0.095
-0.095
-0.105
-0.115
-0.105
-0.105
-0.095
-0.085
-0.095
-0.085
-0.095
-0.075
-0.055
-0.045
-0.055
-0.065
-0.075
-0.055
-0.025
-0.045
-0.055
-0.075
-0.075
-0.095
0.015
0.305
0.655
0.375
-0.345
-0.575
-0.565
-0.315
-0.145
-0.105
-0.085
-0.075
-0.065
-0.055
-0.075
-0.065
-0.055
-0.025
-0.025
-0.005
0.025
0.045
0.025
0.005
-0.005
0.015
-0.005
-0.005
-0.005
0.005
0.015
0.015
0.045
0.075
0.075
0.075
0.075
0.085
0.075
0.045
0.025
0.005
-0.035
-0.045
-0.025
0.005
0.025
0.005
-0.005
-0.025
-0.035
-0.055
-0.055
-0.055
-0.055
-0.065
-0.095
-0.105
-0.105
-0.105
-0.105
-0.115
-0.115
-0.115
-0.105
-0.105
-0.105
-0.085
-0.015
0.015
-0.005
-0.025
-0.015
-0.015
-0.035
-0.055
-0.075
-0.095
-0.095
-0.095
-0.095
-0.125
-0.155
-0.155
-0.125
-0.135
-0.135
-0.105
-0.105
-0.055
-0.005
0.025
-0.005
-0.005
-0.015
0.005
-0.075
0.005
0.355
0.645
0.265
-0.375
-0.575
-0.555
-0.345
-0.145
-0.105
-0.135
-0.105
-0.075
-0.115
-0.095
-0.125
-0.135
-0.135
-0.115
-0.085
-0.075
-0.045
-0.005
0.005
0.035
0.065
0.055
0.055
0.055
0.065
0.065
0.075
0.075
0.085
0.085
0.115
0.135
0.145
0.135
0.105
0.085
0.035
-0.015
-0.055
-0.095
-0.115
-0.115
-0.115
-0.115
-0.115
-0.105
-0.085
-0.075
-0.075
-0.045
-0.045
-0.065
-0.075
-0.085
-0.105
-0.105
-0.115
-0.115
-0.115
-0.115
-0.125
-0.125
-0.125
-0.105
-0.085
-0.065
-0.085
-0.005
0.255
0.575
0.355
-0.385
-0.425
-0.485
-0.385
-0.145
-0.025
-0.005
-0.025
-0.025
-0.035
-0.035
-0.025
-0.015
-0.035
-0.035
-0.035
-0.025
-0.025
-0.015
-0.005
-0.015
0.005
0.025
0.045
0.065
0.065
0.085
0.115
0.145
0.155
0.185
0.235
0.225
0.205
0.175
0.115
0.065
0.005
-0.035
-0.085
-0.115
-0.115
-0.125
-0.145
-0.155
-0.155
-0.165
-0.165
-0.155
-0.125
-0.115
-0.095
-0.075
-0.105
-0.055
0.005
0.005
-0.005
-0.055
-0.075
-0.075
-0.095
-0.105
-0.095
-0.105
-0.115
-0.135
-0.135
-0.135
-0.135
-0.145
-0.145
-0.135
-0.115
-0.075
-0.085
-0.055
0.185
0.605
0.655
-0.065
-0.425
-0.535
-0.355
-0.165
-0.125
-0.135
-0.135
-0.135
-0.135
-0.145
-0.145
-0.155
-0.165
-0.155
-0.145
-0.145
-0.135
-0.105
-0.075
-0.075
-0.055
-0.015
0.025
0.035
0.035
0.055
0.065
0.095
0.085
0.085
0.115
0.125
0.125
0.115
0.095
0.075
0.025
-0.005
-0.045
-0.065
-0.075
-0.065
-0.035
-0.025
-0.025
-0.055
-0.075
-0.085
-0.095
-0.095
-0.105
-0.105
-0.115
-0.125
-0.125
-0.145
-0.155
-0.155
-0.155
-0.155
-0.155
-0.145
-0.135
-0.105
-0.045
-0.015
-0.015
-0.035
-0.055
-0.065
-0.065
-0.065
-0.075
-0.095
-0.105
-0.105
-0.115
-0.125
-0.125
-0.125
-0.125
-0.125
-0.135
-0.135
-0.155
-0.095
0.205
0.595
0.405
-0.275
-0.405
-0.455
-0.295
-0.125
-0.085
-0.075
-0.095
-0.105
-0.105
-0.095
-0.115
-0.115
-0.105
-0.105
-0.095
-0.105
-0.105
-0.105
-0.115
-0.085
-0.065
-0.045
-0.035
-0.025
0.035
0.105
0.105
0.115
0.125
0.125
0.155
0.145
0.155
0.155
0.125
0.095
0.045
-0.015
-0.045
-0.085
-0.105
-0.105
-0.095
-0.115
-0.115
-0.105
-0.085
-0.075
-0.055
-0.025
-0.015
-0.075
-0.105
-0.105
-0.115
-0.125
-0.125
-0.155
-0.165
-0.195
-0.205
-0.185
-0.175
-0.175
-0.205
-0.195
-0.165
-0.175
-0.175
-0.135
-0.065
-0.075
-0.005
-0.075
-0.085
-0.065
-0.095
-0.045
-0.075
-0.065
-0.115
-0.065
-0.115
-0.145
0.105
0.475
0.445
-0.215
-0.335
-0.435
-0.415
-0.195
-0.045
-0.015
-0.015
-0.045
-0.065
-0.085
-0.075
-0.075
-0.065
-0.065
-0.075
-0.085
-0.095
-0.125
-0.105
-0.085
-0.065
-0.055
-0.035
-0.005
0.015
0.035
0.085
0.085
0.155
0.165
0.205
0.195
0.225
0.205
0.175
0.135
0.065
0.025
-0.015
-0.075
-0.085
-0.095
-0.095
-0.115
-0.115
-0.105
-0.075
-0.095
-0.075
-0.055
-0.055
-0.035
-0.035
-0.045
-0.045
-0.075
-0.055
-0.065
-0.095
-0.085
-0.105
-0.145
-0.115
-0.125
-0.115
-0.125
-0.135
-0.115
-0.105
-0.095
-0.075
-0.055
-0.005
-0.005
-0.045
0.025
0.285
0.615
0.525
-0.185
-0.325
-0.355
-0.425
-0.255
-0.115
-0.035
-0.025
-0.055
-0.065
-0.075
-0.085
-0.075
-0.065
-0.035
0.005
0.035
0.035
0.035
0.025
0.035
0.035
0.045
0.055
0.055
0.055
0.075
0.075
0.105
0.135
0.155
0.185
0.195
0.225
0.225
0.185
0.165
0.155
0.125
0.055
0.015
-0.015
-0.025
-0.045
-0.075
-0.075
-0.075
-0.085
-0.085
-0.105
-0.115
-0.115
-0.125
-0.105
-0.085
-0.065
-0.055
-0.045
-0.035
-0.035
-0.015
-0.005
0.015
0.035
0.025
0.025
0.005
-0.015
-0.025
-0.025
-0.025
-0.035
-0.035
-0.035
-0.045
-0.055
-0.045
-0.035
-0.035
-0.045
-0.055
-0.065
-0.055
-0.055
-0.045
-0.025
0.015
0.055
0.015
0.075
0.325
0.675
0.555
-0.245
-0.435
-0.485
-0.325
-0.135
-0.075
-0.075
-0.055
-0.055
-0.055
-0.045
-0.065
-0.065
-0.045
-0.045
-0.035
-0.005
0.025
0.075
0.075
0.075
0.075
0.065
0.075
0.095
0.105
0.125
0.135
0.145
0.155
0.135
0.145
0.155
0.165
0.175
0.155
0.135
0.115
0.065
0.035
0.035
0.035
0.035
0.025
0.015
-0.005
-0.005
-0.025
-0.045
-0.065
-0.055
-0.065
-0.065
-0.065
-0.085
-0.075
-0.065
-0.045
-0.055
-0.055
-0.035
-0.015
-0.015
0.005
0.035
0.065
0.055
0.035
0.015
0.015
0.015
-0.015
-0.025
-0.025
-0.035
-0.035
-0.035
-0.025
-0.035
-0.025
0.005
-0.025
0.105
0.425
0.745
0.325
-0.275
-0.415
-0.315
-0.095
-0.005
-0.015
-0.015
-0.025
-0.045
-0.065
-0.065
-0.065
-0.075
-0.065
-0.055
-0.055
-0.075
-0.075
-0.065
-0.045
-0.035
-0.015
0.005
0.015
0.055
0.075
0.125
0.175
0.185
0.185
0.195
0.195
0.205
0.205
0.185
0.145
0.105
0.065
0.025
-0.015
-0.045
-0.075
-0.075
-0.075
-0.085
-0.075
-0.075
-0.055
-0.005
0.005
-0.005
-0.005
-0.005
0.005
0.065
0.305
0.615
0.215
-0.515
-0.655
-0.595
-0.315
-0.145
-0.085
-0.115
-0.115
-0.105
-0.115
-0.105
-0.095
-0.045
0.005
0.015
0.025
0.015
0.005
0.005
-0.015
-0.015
-0.035
-0.035
-0.035
-0.025
-0.015
-0.005
-0.005
0.015
0.025
0.035
0.055
0.085
0.085
0.095
0.065
0.055
0.065
0.045
0.025
0.005
-0.025
-0.035
-0.065
-0.075
-0.095
-0.115
-0.125
-0.135
-0.125
-0.135
-0.155
-0.145
-0.135
-0.125
-0.125
-0.105
-0.105
-0.015
0.235
0.555
0.265
-0.475
-0.475
-0.465
-0.295
-0.165
-0.085
-0.095
-0.105
-0.135
-0.155
-0.145
-0.155
-0.145
-0.155
-0.155
-0.155
-0.145
-0.145
-0.135
-0.135
-0.115
-0.105
-0.085
-0.075
-0.055
-0.035
0.005
0.035
0.095
0.125
0.135
0.135
0.125
0.125
0.105
0.075
0.005
-0.045
-0.085
-0.125
-0.155
-0.175
-0.165
-0.175
-0.175
-0.195
-0.185
-0.185
-0.165
-0.135
-0.125
-0.085
-0.065
-0.065
-0.065
-0.075
-0.085
-0.095
-0.105
-0.115
-0.145
-0.175
-0.175
-0.175
-0.205
-0.205
-0.185
-0.195
-0.185
-0.195
-0.175
-0.165
-0.165
-0.115
-0.075
-0.065
-0.075
-0.085
-0.075
-0.055
-0.105
-0.015
0.255
0.545
0.295
-0.405
-0.425
-0.485
-0.515
-0.365
-0.235
-0.185
-0.175
-0.185
-0.195
-0.205
-0.225
-0.215
-0.185
-0.175
-0.145
-0.115
-0.055
-0.025
-0.025
-0.045
-0.045
-0.045
-0.025
-0.035
-0.045
-0.045
-0.035
-0.025
-0.015
-0.015
0.015
0.015
0.015
0.015
-0.015
-0.035
-0.085
-0.115
-0.125
-0.145
-0.155
-0.155
-0.115
-0.075
-0.055
-0.065
-0.085
-0.105
-0.115
-0.115
-0.125
-0.145
-0.145
-0.135
-0.145
-0.135
-0.145
-0.155
-0.155
-0.165
-0.155
-0.155
-0.155
-0.165
-0.155
-0.155
-0.155
-0.005
0.345
0.555
-0.025
-0.435
-0.545
-0.405
-0.145
-0.055
-0.065
-0.085
-0.095
-0.115
-0.135
-0.135
-0.125
-0.125
-0.125
-0.105
-0.095
-0.115
-0.095
-0.095
-0.105
-0.095
-0.075
-0.075
-0.075
-0.065
-0.055
-0.025
-0.015
0.015
0.045
0.055
0.085
0.115
0.125
0.095
0.035
-0.005
-0.035
-0.065
-0.095
-0.125
-0.145
-0.155
-0.175
-0.185
-0.195
-0.205
-0.215
-0.225
-0.225
-0.225
-0.225
-0.235
-0.215
-0.195
-0.165
-0.165
-0.145
-0.115
-0.105
-0.125
-0.135
-0.135
-0.145
-0.145
-0.155
-0.165
-0.165
-0.185
-0.175
-0.195
-0.215
-0.215
-0.235
-0.225
-0.225
-0.225
-0.255
-0.095
0.245
0.485
-0.045
-0.505
-0.615
-0.505
-0.275
-0.175
-0.135
-0.125
-0.145
-0.135
-0.165
-0.185
-0.205
-0.225
-0.235
-0.245
-0.245
-0.245
-0.245
-0.245
-0.235
-0.225
-0.205
-0.205
-0.205
-0.185
-0.175
-0.155
-0.135
-0.115
-0.075
-0.045
-0.015
0.035
0.055
0.055
0.005
-0.035
-0.075
-0.105
-0.125
-0.165
-0.195
-0.215
-0.205
-0.215
-0.235
-0.245
-0.235
-0.245
-0.255
-0.245
-0.225
-0.205
-0.195
-0.175
-0.155
-0.155
-0.015
0.335
0.525
-0.115
-0.545
-0.645
-0.505
-0.265
-0.135
-0.135
-0.145
-0.165
-0.165
-0.175
-0.175
-0.175
-0.165
-0.155
-0.145
-0.145
-0.135
-0.115
-0.095
-0.075
-0.035
-0.005
0.045
0.065
0.075
0.085
0.095
0.105
0.105
0.095
0.095
0.115
0.125
0.115
0.075
0.035
0.005
-0.025
-0.045
-0.065
-0.065
-0.045
-0.035
-0.035
-0.015
0.025
0.055
0.055
0.025
0.005
0.005
-0.015
0.005
-0.015
-0.015
-0.025
-0.035
-0.045
-0.045
-0.035
-0.035
-0.045
-0.035
-0.025
-0.015
-0.005
-0.005
0.015
0.045
0.075
0.075
0.075
0.075
0.085
0.075
0.065
0.045
0.035
0.035
0.035
0.035
0.025
0.025
0.035
0.025
0.025
0.045
0.045
0.065
0.065
0.075
0.115
0.165
0.165
0.165
0.145
0.145
0.145
0.115
0.105
0.095
0.085
0.095
0.085
0.075
0.265
0.595
0.695
0.085
-0.245
-0.325
-0.155
0.055
0.135
0.155
0.185
0.185
0.175
0.185
0.175
0.185
0.175
0.175
0.155
0.145
0.155
0.155
0.155
0.155
0.165
0.165
0.185
0.195
0.225
0.215
0.225
0.255
0.275
0.315
0.315
0.305
0.285
0.295
0.305
0.315
0.285
0.255
0.225
0.185
0.165
0.165
0.155
0.155
0.135
0.125
0.125
0.135
0.135
0.135
0.135
0.145
0.185
0.215
0.205
0.195
0.155
0.155
0.145
0.145
0.125
0.105
0.095
0.095
0.085
0.065
0.075
0.095
0.105
0.125
0.045
0.075
0.315
0.625
0.395
-0.075
-0.115
-0.175
-0.025
0.075
0.105
0.095
0.085
0.055
0.035
0.035
0.015
0.005
-0.005
-0.005
-0.005
-0.005
0.005
0.025
0.025
0.015
0.035
0.065
0.085
0.115
0.125
0.165
0.215
0.235
0.235
0.245
0.265
0.285
0.265
0.235
0.195
0.135
0.075
0.055
0.015
-0.025
-0.055
-0.025
-0.045
-0.065
-0.095
-0.085
-0.075
-0.065
-0.055
-0.055
-0.045
-0.035
-0.005
0.035
0.045
0.025
0.015
-0.005
-0.005
-0.005
-0.035
-0.045
-0.065
-0.105
-0.125
-0.115
-0.105
-0.125
-0.155
-0.115
-0.115
-0.125
-0.125
-0.115
-0.135
-0.045
0.245
0.485
0.125
-0.295
-0.155
-0.295
-0.295
-0.155
-0.055
-0.035
-0.045
-0.065
-0.075
-0.095
-0.085
-0.085
-0.105
-0.115
-0.115
-0.115
-0.125
-0.115
-0.105
-0.105
-0.105
-0.065
-0.035
-0.005
0.025
0.065
0.105
0.105
0.105
0.115
0.135
0.135
0.135
0.105
0.085
0.025
-0.015
-0.045
-0.095
-0.135
-0.175
-0.185
-0.195
-0.185
-0.185
-0.155
-0.135
-0.095
-0.075
-0.075
-0.085
-0.095
-0.105
-0.105
-0.105
-0.115
-0.115
-0.125
-0.135
-0.145
-0.145
-0.155
-0.145
-0.135
-0.145
-0.155
-0.125
-0.105
-0.065
-0.065
-0.095
-0.105
-0.125
-0.125
-0.135
-0.145
-0.145
-0.145
-0.145
-0.145
-0.155
-0.145
-0.145
-0.145
-0.155
-0.145
-0.135
-0.115
-0.105
-0.105
-0.075
-0.055
-0.055
-0.035
-0.045
-0.075
-0.075
-0.085
-0.095
-0.115
-0.105
-0.135
-0.055
0.205
0.555
0.265
-0.385
-0.485
-0.525
-0.335
-0.145
-0.065
-0.055
-0.045
-0.035
0.005
0.025
0.015
0.005
0.005
0.005
-0.015
-0.045
-0.065
-0.055
-0.065
-0.055
-0.035
-0.035
-0.025
-0.015
-0.015
0.005
0.035
0.065
0.085
0.095
0.145
0.205
0.235
0.245
0.225
0.195
0.165
0.125
0.095
0.045
0.015
-0.015
-0.025
-0.035
-0.035
-0.035
-0.045
-0.045
-0.055
-0.045
-0.035
-0.025
-0.005
0.005
0.005
0.045
0.075
0.085
0.065
0.055
0.045
0.045
0.015
-0.005
-0.015
-0.025
-0.025
-0.035
-0.035
-0.055
-0.035
-0.045
-0.045
-0.045
-0.045
-0.035
-0.025
-0.015
-0.015
-0.015
-0.025
0.045
0.105
0.085
0.065
0.045
0.035
0.035
-0.005
0.005
0.005
-0.005
0.005
-0.005
-0.015
-0.025
-0.025
-0.025
-0.015
-0.015
-0.015
-0.005
-0.025
-0.015
-0.015
-0.015
-0.005
0.005
0.015
0.065
0.065
0.055
0.035
0.025
0.025
0.015
0.015
0.185
0.545
0.645
-0.015
-0.345
-0.445
-0.285
-0.085
-0.035
-0.025
-0.035
-0.035
-0.035
-0.025
-0.025
-0.005
-0.005
-0.005
0.025
0.065
0.045
0.045
0.035
0.035
0.045
0.045
0.055
0.035
0.035
0.045
0.055
0.055
0.065
0.065
0.095
0.095
0.105
0.115
0.125
0.135
0.125
0.105
0.075
0.065
0.075
0.095
0.075
0.055
0.005
-0.025
-0.045
-0.075
-0.075
-0.075
-0.065
-0.085
-0.025
0.295
0.595
0.395
-0.295
-0.705
-0.465
-0.155
-0.045
-0.015
-0.015
-0.015
-0.005
-0.025
-0.035
-0.065
-0.065
-0.075
-0.085
-0.095
-0.105
-0.105
-0.115
-0.105
-0.115
-0.095
-0.095
-0.095
-0.085
-0.045
-0.015
0.005
0.015
0.035
0.055
0.055
0.085
0.115
0.125
0.125
0.095
0.045
-0.005
-0.045
-0.075
-0.095
-0.125
-0.135
-0.155
-0.155
-0.165
-0.155
-0.155
-0.145
-0.155
-0.175
-0.185
-0.195
-0.205
-0.225
-0.205
-0.205
-0.185
-0.165
-0.155
-0.165
-0.165
-0.125
-0.075
-0.095
-0.105
-0.105
-0.105
-0.115
-0.155
-0.175
-0.175
-0.205
-0.215
-0.225
-0.225
-0.245
-0.245
-0.255
-0.255
-0.255
-0.245
-0.245
-0.225
-0.225
-0.205
-0.185
-0.175
-0.145
-0.125
-0.125
-0.155
-0.165
-0.165
-0.175
-0.185
-0.195
-0.195
-0.195
-0.215
-0.205
-0.235
-0.115
0.195
0.425
-0.025
-0.485
-0.625
-0.605
-0.395
-0.265
-0.205
-0.205
-0.195
-0.145
-0.125
-0.135
-0.135
-0.105
-0.105
-0.105
-0.105
-0.115
-0.105
-0.105
-0.105
-0.115
-0.105
-0.095
-0.095
-0.095
-0.075
-0.065
-0.065
-0.035
-0.025
-0.015
0.005
0.035
0.055
0.065
0.085
0.095
0.095
0.085
0.075
0.055
0.025
-0.005
-0.025
-0.055
-0.075
-0.095
-0.105
-0.115
-0.135
-0.155
-0.165
-0.175
-0.185
-0.185
-0.175
-0.175
-0.165
-0.175
-0.155
-0.135
-0.135
-0.135
-0.135
-0.075
-0.025
0.135
0.365
0.385
-0.255
-0.345
-0.345
-0.435
-0.285
-0.165
-0.105
-0.125
-0.135
-0.125
-0.105
-0.115
-0.115
-0.095
-0.105
-0.095
-0.075
-0.055
-0.035
-0.005
0.035
0.075
0.095
0.095
0.095
0.105
0.125
0.135
0.125
0.165
0.175
0.185
0.185
0.175
0.165
0.135
0.105
0.055
0.045
0.025
0.025
0.025
0.025
0.065
0.095
0.095
0.105
0.095
0.095
0.115
0.115
0.095
0.075
0.065
0.045
0.035
0.035
0.025
0.035
0.035
0.035
0.025
0.035
0.045
0.055
0.105
0.135
0.125
0.115
0.105
0.065
0.175
0.465
0.775
0.265
-0.265
-0.245
-0.355
-0.205
-0.055
0.055
0.055
0.035
0.035
0.045
0.055
0.065
0.075
0.105
0.125
0.145
0.175
0.195
0.225
0.255
0.255
0.245
0.245
0.255
0.265
0.265
0.265
0.235
0.235
0.255
0.255
0.265
0.275
0.265
0.245
0.215
0.175
0.135
0.105
0.095
0.095
0.085
0.075
0.085
0.105
0.135
0.145
0.125
0.115
0.075
0.065
0.055
0.055
0.045
0.045
0.105
0.415
0.705
0.185
-0.465
-0.575
-0.425
-0.145
0.025
0.085
0.065
0.065
0.085
0.115
0.145
0.165
0.155
0.135
0.145
0.145
0.135
0.125
0.135
0.135
0.125
0.125
0.125
0.135
0.145
0.135
0.155
0.185
0.195
0.225
0.235
0.255
0.245
0.215
0.185
0.145
0.115
0.105
0.095
0.115
0.095
0.065
0.035
0.035
0.025
-0.005
-0.015
-0.005
-0.015
-0.015
-0.025
-0.025
-0.015
-0.015
-0.025
-0.055
-0.065
-0.065
-0.055
-0.055
-0.045
-0.035
-0.015
-0.015
0.045
0.055
0.025
0.025
0.015
0.015
-0.005
-0.015
-0.035
-0.045
-0.055
-0.055
-0.045
-0.055
-0.065
-0.095
-0.095
-0.095
-0.105
-0.095
-0.105
-0.105
-0.105
-0.075
-0.055
-0.075
-0.085
-0.025
-0.015
-0.045
-0.055
-0.055
-0.085
-0.105
-0.125
-0.105
-0.135
-0.175
-0.165
-0.145
-0.135
0.025
0.365
0.465
-0.095
-0.405
-0.505
-0.445
-0.275
-0.165
-0.085
-0.065
-0.075
-0.095
-0.085
-0.115
-0.095
-0.075
-0.095
-0.095
-0.145
-0.155
-0.175
-0.165
-0.175
-0.165
-0.165
-0.155
-0.145
-0.135
-0.125
-0.115
-0.095
-0.095
-0.045
-0.005
0.005
-0.005
0.015
-0.005
0.015
-0.005
-0.055
-0.085
-0.135
-0.175
-0.215
-0.255
-0.225
-0.215
-0.265
-0.285
-0.265
-0.265
-0.275
-0.265
-0.285
-0.265
-0.255
-0.245
-0.145
0.245
0.375
-0.005
-0.645
-0.685
-0.355
-0.205
-0.205
-0.225
-0.245
-0.265
-0.275
-0.285
-0.285
-0.285
-0.305
-0.265
-0.295
-0.295
-0.315
-0.315
-0.275
-0.275
-0.255
-0.205
-0.235
-0.215
-0.215
-0.185
-0.185
-0.175
-0.095
-0.075
-0.065
0.035
-0.025
-0.075
-0.075
-0.105
-0.115
-0.155
-0.155
-0.245
-0.215
-0.255
-0.265
-0.225
-0.255
-0.265
-0.255
-0.255
-0.235
-0.255
-0.285
-0.235
-0.225
-0.255
-0.195
-0.195
-0.155
-0.185
-0.215
-0.225
-0.205
-0.215
-0.265
-0.235
-0.235
-0.245
-0.275
-0.285
-0.295
-0.295
-0.285
-0.305
-0.305
-0.315
-0.295
-0.275
-0.255
-0.225
-0.215
-0.205
-0.145
-0.145
-0.145
-0.155
-0.165
-0.165
-0.135
-0.175
-0.145
0.115
0.455
0.245
-0.405
-0.435
-0.615
-0.575
-0.395
-0.305
-0.265
-0.265
-0.255
-0.235
-0.225
-0.215
-0.185
-0.135
-0.125
-0.105
-0.105
-0.105
-0.105
-0.095
-0.105
-0.135
-0.155
-0.145
-0.135
-0.165
-0.145
-0.135
-0.135
-0.145
-0.135
-0.105
-0.095
-0.095
-0.095
-0.085
-0.075
-0.085
-0.115
-0.115
-0.085
-0.065
-0.035
-0.075
-0.105
-0.135
-0.145
-0.145
-0.155
-0.175
-0.185
-0.195
-0.195
-0.205
-0.215
-0.205
-0.215
-0.225
-0.245
-0.265
-0.255
-0.255
-0.245
-0.215
-0.205
-0.215
-0.195
-0.185
-0.155
-0.135
-0.135
-0.135
-0.145
-0.155
-0.145
-0.175
-0.175
-0.185
-0.215
-0.215
-0.225
-0.235
-0.235
-0.265
-0.165
0.125
0.455
0.125
-0.525
-0.585
-0.645
-0.465
-0.305
-0.175
-0.135
-0.125
-0.135
-0.145
-0.165
-0.155
-0.155
-0.185
-0.165
-0.175
-0.185
-0.175
-0.175
-0.185
-0.195
-0.215
-0.205
-0.195
-0.175
-0.165
-0.155
-0.115
-0.095
-0.075
-0.025
0.025
0.055
0.045
0.025
0.005
-0.035
-0.105
-0.155
-0.165
-0.185
-0.235
-0.265
-0.285
-0.305
-0.295
-0.295
-0.295
-0.295
-0.295
-0.285
-0.275
-0.265
-0.245
-0.235
-0.045
0.275
0.575
-0.065
-0.585
-0.635
-0.635
-0.385
-0.195
-0.185
-0.215
-0.235
-0.235
-0.245
-0.255
-0.255
-0.245
-0.225
-0.225
-0.215
-0.165
-0.145
-0.095
-0.065
-0.035
-0.015
-0.015
-0.035
-0.025
0.005
0.015
0.005
0.015
0.025
0.015
0.075
0.065
0.045
0.025
-0.035
-0.055
-0.105
-0.125
-0.095
-0.065
-0.045
-0.055
-0.035
-0.045
-0.055
-0.065
-0.085
-0.075
-0.065
-0.075
-0.085
-0.115
-0.125
-0.145
-0.145
-0.145
-0.165
-0.155
-0.155
-0.145
-0.125
-0.095
-0.035
-0.005
-0.015
-0.035
-0.065
-0.045
-0.055
-0.065
-0.065
-0.085
-0.055
-0.055
-0.085
-0.115
-0.125
-0.115
-0.115
-0.125
-0.125
-0.125
-0.105
-0.105
-0.095
-0.085
-0.055
-0.015
0.045
-0.005
0.055
0.325
0.745
0.565
-0.075
-0.205
-0.365
-0.335
-0.175
-0.075
-0.035
-0.055
-0.065
-0.065
-0.085
-0.065
-0.075
-0.055
-0.045
-0.035
-0.015
0.015
0.025
0.045
0.065
0.125
0.175
0.195
0.235
0.235
0.205
0.215
0.205
0.205
0.205
0.205
0.205
0.205
0.215
0.185
0.175
0.155
0.115
0.085
0.055
0.045
0.035
0.015
0.025
0.035
0.045
0.045
0.065
0.085
0.125
0.165
0.195
0.175
0.145
0.135
0.135
0.125
0.095
0.085
0.075
0.085
0.065
0.065
0.055
0.035
0.065
0.055
0.055
0.045
0.195
0.565
0.825
0.325
-0.115
-0.195
-0.215
-0.015
0.165
0.185
0.155
0.145
0.155
0.125
0.095
0.075
0.075
0.075
0.045
0.045
0.085
0.065
0.065
0.075
0.085
0.105
0.115
0.125
0.135
0.145
0.185
0.215
0.295
0.345
0.355
0.335
0.325
0.275
0.245
0.205
0.195
0.145
0.085
0.045
0.025
-0.005
-0.015
0.015
0.005
0.005
0.015
0.005
0.065
0.325
0.685
0.575
-0.165
-0.435
-0.495
-0.215
0.035
0.105
0.065
0.045
0.055
0.055
0.035
0.005
0.005
-0.005
-0.025
-0.015
-0.015
-0.005
-0.015
-0.025
-0.015
-0.005
0.015
0.055
0.065
0.075
0.105
0.165
0.195
0.205
0.215
0.265
0.265
0.255
0.225
0.175
0.105
0.075
0.015
-0.025
-0.045
-0.055
-0.065
-0.075
-0.065
-0.075
-0.075
-0.045
-0.025
-0.015
0.025
0.035
0.025
-0.005
-0.015
0.005
-0.015
0.005
0.175
0.485
0.535
-0.335
-0.555
-0.585
-0.545
-0.315
-0.225
-0.155
-0.145
-0.165
-0.155
-0.145
-0.115
-0.115
-0.095
-0.055
-0.035
-0.055
-0.065
-0.075
-0.085
-0.065
-0.075
-0.085
-0.075
-0.075
-0.065
-0.065
-0.065
-0.055
-0.035
-0.065
-0.005
0.025
0.015
0.005
-0.025
-0.045
-0.075
-0.095
-0.095
-0.065
-0.075
-0.085
-0.105
-0.115
-0.115
-0.135
-0.155
-0.175
-0.195
-0.175
-0.175
-0.195
-0.215
-0.225
-0.225
-0.225
-0.225
-0.215
-0.235
-0.235
-0.225
-0.205
-0.195
-0.185
-0.175
-0.095
-0.085
-0.105
-0.095
-0.105
-0.135
-0.085
0.155
0.545
0.415
-0.305
-0.415
-0.485
-0.485
-0.305
-0.195
-0.155
-0.175
-0.155
-0.185
-0.165
-0.155
-0.125
-0.115
-0.115
-0.075
-0.025
-0.055
-0.055
-0.045
-0.045
-0.045
-0.055
-0.065
-0.075
-0.085
-0.095
-0.075
-0.055
-0.055
-0.035
-0.015
0.015
-0.005
0.015
0.035
-0.005
-0.055
-0.065
-0.045
-0.055
-0.065
-0.065
-0.085
-0.105
-0.105
-0.135
-0.135
-0.145
-0.165
-0.175
-0.165
-0.165
-0.185
-0.155
-0.125
-0.135
-0.125
-0.135
-0.145
-0.135
-0.085
-0.025
-0.025
-0.045
-0.075
-0.095
-0.105
-0.125
-0.155
-0.175
-0.165
-0.165
-0.205
-0.195
-0.195
-0.205
-0.225
-0.205
-0.195
-0.185
-0.195
-0.185
-0.155
-0.155
-0.145
-0.085
-0.025
-0.015
-0.055
-0.095
-0.105
-0.115
-0.125
-0.135
-0.165
-0.175
-0.185
-0.195
-0.195
-0.205
-0.215
-0.205
-0.195
-0.215
-0.155
0.165
0.525
0.245
-0.325
-0.395
-0.495
-0.415
-0.255
-0.175
-0.125
-0.125
-0.095
-0.045
-0.035
-0.075
-0.115
-0.135
-0.135
-0.165
-0.195
-0.175
-0.195
-0.185
-0.195
-0.205
-0.185
-0.195
-0.195
-0.175
-0.165
-0.155
-0.155
-0.135
-0.115
-0.085
-0.055
-0.025
-0.005
0.065
0.085
0.075
0.025
-0.055
-0.105
-0.105
-0.135
-0.155
-0.165
-0.175
-0.195
-0.205
-0.225
-0.215
-0.215
-0.215
-0.215
-0.215
-0.165
-0.225
-0.335
-0.265
