3.536117570000000265e-01,4.029497859999999765e-01,4.494891030000000010e-01,4.949316020000000260e-01,5.398068040000000289e-01,5.826553079999999829e-01,6.270583939999999634e-01,6.706698359999999637e-01,7.124789280000000113e-01,7.539828440000000409e-01,7.944851179999999902e-01,8.334237439999999664e-01,8.724288420000000377e-01,9.087681800000000365e-01,9.380597670000000443e-01,9.584581939999999856e-01,9.678793439999999748e-01,9.628189900000000412e-01,9.433866610000000152e-01,9.097833079999999573e-01,8.677876169999999556e-01,8.170944119999999922e-01,7.603263970000000427e-01,6.984852240000000156e-01,6.367014680000000482e-01,5.736683009999999916e-01,5.122184309999999741e-01,4.524470279999999733e-01,3.957560949999999744e-01,3.407149190000000050e-01,2.881295050000000080e-01,2.369030289999999872e-01,1.873550200000000110e-01,1.398337209999999942e-01,9.545934699999999995e-02,5.166661300000000012e-02,1.088789700000000055e-02,-2.703471400000000135e-02,-6.147651600000000188e-02,-9.222749500000000655e-02,-1.203988339999999962e-01,-1.450319369999999997e-01,-1.665989240000000093e-01,-1.849759199999999881e-01,-1.999151789999999984e-01,-2.125369049999999982e-01,-2.224497749999999885e-01,-2.293593050000000133e-01,-2.349189110000000080e-01,-2.388144070000000063e-01,-2.389382790000000034e-01,-2.378414470000000114e-01,-2.351900180000000007e-01,-2.321526180000000050e-01,-2.286000189999999876e-01,-2.234407469999999951e-01,-2.208323929999999879e-01,-2.161165270000000027e-01,-2.134794540000000129e-01,-2.096270430000000129e-01,-2.073095050000000050e-01,-2.050494049999999902e-01,-2.025792790000000010e-01,-1.999996440000000042e-01,-1.974056499999999881e-01,-1.952263379999999993e-01,-1.929518789999999928e-01,-1.926754240000000118e-01,-1.903866049999999865e-01,-1.888607260000000065e-01,-1.875592399999999882e-01,-1.873492069999999898e-01,-1.856563790000000103e-01,-1.852416990000000097e-01,-1.838253230000000127e-01,-1.823712530000000109e-01,-1.824951170000000122e-01,-1.813982779999999961e-01,-1.800537110000000052e-01,-1.790663720000000014e-01,-1.779982559999999936e-01,-1.767488269999999972e-01,-1.751565360000000016e-01,-1.730346680000000026e-01,-1.727438550000000017e-01,-1.705788990000000060e-01,-1.703832200000000019e-01,-1.681231280000000106e-01,-1.665685219999999966e-01,-1.655147700000000055e-01,-1.632690430000000026e-01,-1.618239320000000037e-01,-1.608420010000000122e-01,-1.598259230000000086e-01,-1.582192779999999910e-01,-1.558066009999999890e-01,-1.554870610000000097e-01,-1.536129109999999909e-01,-1.521013969999999993e-01,-1.507281060000000006e-01,-1.493117180000000099e-01,-1.473137089999999871e-01,-1.447771770000000069e-01,-1.434326170000000122e-01,-1.414346089999999889e-01,-1.397274099999999963e-01,-1.388118819999999976e-01,-1.365230630000000001e-01,-1.349684509999999893e-01,-1.333761830000000093e-01,-1.315307619999999955e-01,-1.302669579999999883e-01,-1.289080330000000052e-01,-1.268149040000000061e-01,-1.250646009999999975e-01,-1.228045170000000019e-01,-1.214599610000000052e-01,-1.200723020000000058e-01,-1.195283310000000015e-01,-1.170205440000000041e-01,-1.165627800000000047e-01,-1.145647689999999969e-01,-1.141070049999999975e-01,-1.120946250000000033e-01,-1.105543769999999953e-01,-1.092241919999999977e-01,-1.066876739999999962e-01,-1.057146699999999967e-01,-1.032445240000000042e-01,-1.007887479999999975e-01,-9.950167399999999829e-02,-9.862377699999999581e-02,-9.718411600000000095e-02,-9.489529800000000292e-02,-9.448064500000000199e-02,-9.375532999999999784e-02,-9.228693300000000155e-02,-9.203923899999999492e-02,-9.077542399999999345e-02,-8.987426799999999327e-02,-8.987426799999999327e-02,-8.969293700000000036e-02,-8.769492299999999407e-02,-8.728027300000000543e-02,-8.598771199999999393e-02,-8.482449499999999976e-02,-8.522477100000000472e-02,-8.253567700000000174e-02,-8.264514800000000161e-02,-8.221612799999999943e-02,-8.010864299999999327e-02,-8.034195500000000656e-02,-7.805313599999999519e-02,-7.752902100000000352e-02,-7.626519900000000574e-02,-7.510198899999999400e-02,-7.408584799999999582e-02,-7.266058300000000081e-02,-7.261746199999999374e-02,-7.293701199999999552e-02,-7.150622500000000659e-02,-7.046685699999999386e-02,-7.005221600000000048e-02,-6.903606800000000598e-02,-6.774902300000000543e-02,-6.674724799999999514e-02,-6.526449300000000675e-02,-6.301879900000000034e-02,-6.172621999999999831e-02,-6.057739300000000021e-02,-6.028659199999999996e-02,-5.813598600000000061e-02,-5.812161099999999664e-02,-5.798339799999999850e-02,-5.825982200000000277e-02,-5.586154399999999909e-02,-5.569458000000000047e-02,-5.563707400000000164e-02,-5.325317400000000034e-02,-5.183675299999999930e-02,-5.078301400000000132e-02,-5.046346100000000112e-02,-4.835598399999999769e-02,-4.792697499999999666e-02,-4.591457799999999756e-02,-4.574761200000000000e-02,-4.463636299999999835e-02,-4.319675099999999851e-02,-4.313923900000000283e-02,-4.118435200000000046e-02,-4.074096700000000293e-02,-4.074096700000000293e-02,-4.085041899999999893e-02,-4.075534499999999838e-02,-3.978230299999999803e-02,-3.860473600000000061e-02,-3.828518100000000146e-02,-3.828518100000000146e-02,-3.706447799999999793e-02,-3.571994600000000242e-02,-3.573432599999999681e-02,-3.584377400000000186e-02,-3.473251900000000336e-02,-3.337360799999999905e-02,-3.354057500000000303e-02,-3.143310500000000285e-02,-3.012611899999999981e-02,-2.851955499999999852e-02,-2.636894299999999886e-02,-2.493812800000000038e-02,-2.367988500000000121e-02,-2.252548299999999892e-02,-2.148612999999999912e-02,-1.947372400000000128e-02,-1.892089799999999850e-02,-1.890651700000000116e-02,-1.750446099999999894e-02,-1.661769800000000019e-02,-1.629813999999999916e-02,-1.660331500000000043e-02,-1.643634399999999857e-02,-1.420505700000000010e-02,-1.360908800000000009e-02,-1.417629100000000059e-02,-1.376167600000000046e-02,-1.388549799999999959e-02,-1.262164500000000078e-02,-1.132027099999999981e-02,-1.132027099999999981e-02,-1.129150400000000082e-02,-1.170611600000000078e-02,-1.142970800000000023e-02,-1.141532299999999979e-02,-9.002685999999999328e-03,-9.155273000000000230e-03,-9.112119000000000121e-03,-6.866454999999999607e-03,-6.713867000000000099e-03,-5.545055999999999596e-03,-3.967285000000000082e-03,-3.118033000000000089e-03,-1.649695999999999975e-03,-4.289920000000000018e-04,6.103519999999999866e-04,1.874213000000000007e-03,3.037371999999999989e-03,4.301234000000000134e-03,5.631365999999999629e-03,6.771413999999999905e-03,8.072770999999999419e-03,8.130319000000000434e-03,1.040475100000000028e-02,1.043352500000000078e-02,1.269356999999999951e-02,1.294119600000000030e-02,1.409563599999999993e-02,1.557835299999999965e-02,1.754760699999999979e-02,1.777213500000000140e-02,2.026541299999999948e-02,2.157244599999999859e-02,2.277876100000000154e-02,2.476240399999999828e-02,2.673165799999999842e-02,2.848207000000000169e-02,2.996478299999999831e-02,3.223921200000000320e-02,3.376509199999999655e-02,3.513838300000000220e-02,3.710763699999999887e-02,3.842906799999999679e-02,4.064593799999999951e-02,4.197606000000000254e-02,4.411229099999999792e-02,4.555753299999999728e-02,4.699707000000000190e-02,4.916208200000000278e-02,5.070235199999999914e-02,5.174168600000000201e-02,5.300556199999999912e-02,5.419748399999999716e-02,5.633371400000000001e-02,5.750257000000000285e-02,5.921849299999999705e-02,6.150731200000000148e-02,6.350534600000000418e-02,6.537957699999999428e-02,6.639012499999999428e-02,6.866455100000000422e-02,6.992843099999999923e-02,7.157811299999999877e-02,7.353297100000000253e-02,7.389571799999999913e-02,7.510202800000000123e-02,7.659912100000000612e-02,7.646092699999999798e-02,7.832076799999999894e-02,7.874974499999999600e-02,7.877853299999999781e-02,8.090036999999999923e-02,8.128616399999999409e-02,8.217865000000000586e-02,8.334177700000000577e-02,8.379954100000000516e-02,8.564499100000000364e-02,8.605957000000000190e-02,8.703267700000000273e-02,8.848658199999999419e-02,8.877736199999999855e-02,8.834838899999999939e-02,8.852976799999999480e-02,8.837717999999999963e-02,8.850097699999999457e-02,8.862477300000000391e-02,8.851537299999999442e-02,8.865356400000000414e-02,8.862477200000000443e-02,8.618336499999999789e-02,8.508645600000000475e-02,8.371316500000000604e-02,8.127175799999999950e-02,7.912112999999999785e-02,7.655592899999999479e-02,7.408572800000000347e-02,7.193509900000000234e-02,6.921731200000000306e-02,6.688529899999999528e-02,6.432010000000000505e-02,6.179809599999999681e-02,6.022902200000000011e-02,5.806399500000000019e-02,5.562258800000000059e-02,5.319557899999999978e-02,5.071097599999999789e-02,4.725904899999999742e-02,4.358254000000000294e-02,4.065457100000000046e-02,3.750782200000000316e-02,3.406449100000000230e-02,2.930546599999999877e-02,2.559156599999999962e-02,2.185745700000000027e-02,1.725101899999999938e-02,1.321754600000000016e-02,9.774209000000000716e-03,4.491234000000000198e-03,1.148699999999999895e-03,-2.709201000000000057e-03,-6.161118999999999624e-03,-9.771448999999999760e-03,-1.336155399999999945e-02,-1.717625199999999949e-02,-2.006102099999999833e-02,-2.338915199999999986e-02,-2.680369299999999996e-02,-2.985545200000000107e-02,-3.329296400000000128e-02,-3.656932200000000133e-02,-3.945408999999999722e-02,-4.333496099999999823e-02,-4.662572300000000086e-02,-4.949608800000000058e-02,-5.166112500000000218e-02,-5.512743800000000083e-02,-5.769262599999999686e-02,-5.988646999999999720e-02,-6.275683399999999745e-02,-6.515502900000000319e-02,-6.672411999999999788e-02,-6.759643599999999586e-02,-6.750146399999999713e-02,-6.989965800000000340e-02,-7.017602500000000298e-02,-7.038623099999999355e-02,-7.223169100000000065e-02,-7.275561399999999623e-02,-7.266064599999999540e-02,-7.493505899999999831e-02,-7.532079699999999489e-02,-7.507324199999999836e-02,-7.496387100000000137e-02,-7.739087199999999944e-02,-7.755786600000000308e-02,-7.752905400000000002e-02,-7.734765400000000179e-02,-7.763842399999999755e-02,-7.766723600000000061e-02,-7.752905499999999950e-02,-7.736206099999999586e-02,-7.763842299999999808e-02,-7.763842199999999860e-02,-7.752905599999999897e-02,-7.751464800000000543e-02,-7.766723600000000061e-02,-7.737646800000000380e-02,-7.548778300000000274e-02,-7.521142200000000000e-02,-7.518260599999999905e-02,-7.304637499999999672e-02,-7.250806499999999655e-02,-7.167308299999999854e-02,-7.005224999999999647e-02,-7.005224999999999647e-02,-7.035742600000000069e-02,-7.046678800000000242e-02,-7.017602100000000509e-02,-7.032860800000000079e-02,-7.031419899999999390e-02,-7.002343199999999657e-02,-6.819237699999999847e-02,-6.776343299999999792e-02,-6.774902300000000543e-02,-6.787279100000000176e-02,-6.756761499999999754e-02,-6.561279300000000259e-02,-6.541697300000000326e-02,-6.529320600000000641e-02,-6.330956399999999873e-02,-6.283738899999999350e-02,-6.071556899999999701e-02,-6.057739300000000021e-02,-5.927022099999999794e-02,-5.796898699999999960e-02,-5.799780999999999687e-02,-5.799780999999999687e-02,-5.812157400000000224e-02,-5.770704699999999743e-02,-5.809274899999999908e-02,-5.781639799999999801e-02,-5.755446000000000173e-02,-5.783081100000000280e-02,-5.792574699999999965e-02,-5.568016700000000263e-02,-5.555640500000000315e-02,-5.606586399999999998e-02,-5.555640600000000262e-02,-5.415428800000000181e-02,-5.285306499999999769e-02,-5.308617200000000091e-02,-5.320993200000000145e-02,-5.196039999999999687e-02,-5.064476500000000131e-02,-5.067359400000000236e-02,-5.065917999999999810e-02,-5.036841899999999761e-02,-4.927147400000000260e-02,-4.834153100000000008e-02,-4.837036100000000061e-02,-4.831270000000000009e-02,-4.621971500000000149e-02,-4.594337099999999674e-02,-4.573312000000000210e-02,-4.390206499999999706e-02,-4.330612899999999876e-02,-4.334937700000000144e-02,-4.319678899999999933e-02,-4.348754900000000034e-02,-4.362571999999999978e-02,-4.319678999999999880e-02,-4.307303600000000204e-02,-4.321120700000000148e-02,-4.236176500000000261e-02,-4.089355499999999810e-02,-4.074096700000000293e-02,-4.101730700000000285e-02,-4.063163200000000086e-02,-4.090797300000000025e-02,-4.103172499999999806e-02,-3.975334900000000032e-02,-3.857590000000000324e-02,-3.845214799999999850e-02,-3.803764099999999704e-02,-3.829956100000000280e-02,-3.843773000000000328e-02,-3.845214799999999850e-02,-3.857589799999999736e-02,-3.831397999999999748e-02,-3.832839899999999911e-02,-3.846656799999999959e-02,-3.859031699999999898e-02,-3.845214799999999850e-02,-3.814697300000000069e-02,-3.721702500000000080e-02,-3.573440700000000275e-02,-3.573440700000000275e-02,-3.599632199999999727e-02,-3.581489200000000095e-02,-3.573440800000000223e-02,-3.601074199999999836e-02,-3.603958499999999898e-02,-3.602516399999999841e-02,-3.585815400000000319e-02,-3.370750200000000030e-02,-3.340232600000000301e-02,-3.343117000000000311e-02,-3.355491399999999819e-02,-3.112793000000000157e-02,-3.082275400000000082e-02,-3.096091899999999994e-02,-3.112793000000000157e-02,-3.094649600000000042e-02,-3.068458900000000170e-02,-3.098976499999999898e-02,-2.995885200000000109e-02,-2.865767699999999946e-02,-2.870094700000000096e-02,-2.841019499999999920e-02,-2.867209999999999898e-02,-2.819991200000000059e-02,-2.610695299999999872e-02,-2.634000800000000156e-02,-2.609252899999999972e-02,-2.609252899999999972e-02,-2.606367999999999879e-02,-2.620184299999999897e-02,-2.609252899999999972e-02,-2.595436599999999955e-02,-2.625954200000000030e-02,-2.638327999999999854e-02,-2.583063000000000026e-02,-2.595436699999999902e-02,-2.624511699999999836e-02,-2.595436699999999902e-02,-2.595436699999999902e-02,-2.623069100000000042e-02,-2.567804500000000004e-02,-2.595436799999999850e-02,-2.595436799999999850e-02,-2.621626399999999954e-02,-2.612138300000000149e-02,-2.623069000000000095e-02,-2.625954399999999925e-02,-2.623069000000000095e-02,-2.583063600000000057e-02,-2.633999500000000146e-02,-2.381813899999999859e-02,-2.363669499999999923e-02,-2.367997900000000031e-02,-2.378928300000000134e-02,-2.363669499999999923e-02,-2.366555199999999942e-02,-2.351296400000000078e-02,-2.380371100000000170e-02,-2.366555199999999942e-02,-2.367998099999999925e-02,-2.352739400000000008e-02,-2.367998199999999873e-02,-2.363669399999999976e-02,-2.365112299999999959e-02,-2.362226300000000098e-02,-2.139116500000000018e-02,-2.119528700000000015e-02,-2.120971699999999946e-02,-2.008387999999999840e-02,-1.896418999999999883e-02,-1.878274099999999863e-02,-1.893532900000000074e-02,-1.903019400000000028e-02,-1.864458500000000171e-02,-1.861572300000000069e-02,-1.890646699999999972e-02,-1.864458600000000119e-02,-1.904462300000000011e-02,-1.876831099999999933e-02,-1.889203500000000147e-02,-1.865901899999999891e-02,-1.905905399999999889e-02,-1.875387800000000160e-02,-1.778062099999999993e-02,-1.660321500000000103e-02,-1.632690399999999972e-02,-1.634133700000000092e-02,-1.658878100000000036e-02,-1.509176800000000020e-02,-1.391436499999999972e-02,-1.402365199999999930e-02,-1.376177699999999934e-02,-1.416180600000000074e-02,-1.400921800000000036e-02,-1.289779999999999920e-02,-1.145852600000000013e-02,-1.112448199999999977e-02,-1.141522300000000038e-02,-1.158224499999999969e-02,-1.173483300000000007e-02,-1.142965699999999932e-02,-1.173483200000000060e-02,-1.170596200000000031e-02,-1.158224400000000022e-02,-1.172039700000000045e-02,-1.156780800000000060e-02,-1.132037600000000005e-02,-1.144409199999999946e-02,-1.118222399999999929e-02,-1.130594000000000043e-02,-1.158224300000000075e-02,-1.174926800000000021e-02,-1.129150400000000082e-02,-1.115335299999999953e-02,-1.132037800000000073e-02,-1.133481499999999982e-02,-1.130594099999999991e-02,-1.018007599999999971e-02,-8.864534999999999776e-03,-9.031561000000000450e-03,-9.002685999999999328e-03,-9.017123999999999626e-03,-8.878973999999999547e-03,-9.046000000000000221e-03,-1.104408200000000020e-02,-1.155336399999999999e-02,-1.132038099999999915e-02,-1.145853099999999923e-02,-1.333290200000000064e-02,-1.388549799999999959e-02,-1.399476799999999944e-02,-1.362363999999999936e-02,-1.388549799999999959e-02,-1.388549799999999959e-02,-1.403808599999999997e-02,-1.274518300000000021e-02,-1.142965200000000021e-02,-1.116779700000000014e-02,-1.019450799999999970e-02,-9.031567000000000761e-03,-9.155273000000000230e-03,-9.140832999999999250e-03,-9.278978999999999699e-03,-7.986069999999999627e-03,-7.701600999999999760e-03,-8.835656000000000759e-03,-9.002685999999999328e-03,-9.140831999999999777e-03,-8.835656000000000759e-03,-9.169715000000000157e-03,-9.126389000000000376e-03,-9.126389000000000376e-03,-8.973801000000000000e-03,-9.155273000000000230e-03,-9.278975999999999544e-03,-9.140831000000000303e-03,-9.002685999999999328e-03,-9.002685999999999328e-03,-8.850098000000000686e-03,-9.017129000000000463e-03,-8.711952999999999711e-03,-8.988242000000000453e-03,-9.293416999999999997e-03,-9.140828999999999621e-03,-9.126385000000000747e-03,-9.155273000000000230e-03,-9.002685999999999328e-03,-8.893431000000000253e-03,-9.126383999999999538e-03,-8.878986999999999644e-03,-9.002685999999999328e-03,-9.140828000000000148e-03,-9.155273000000000230e-03,-8.835651999999999395e-03,-8.988239999999999771e-03,-7.905679000000000525e-03,-6.837562999999999627e-03,-6.394244999999999790e-03,-6.270549999999999735e-03,-6.699420999999999675e-03,-6.503494000000000289e-03,-4.148765999999999912e-03,-3.676556000000000095e-03,-4.119872999999999591e-03,-4.090978999999999796e-03,-4.148767000000000253e-03,-4.258014000000000070e-03,-4.105425999999999694e-03,-4.134320999999999829e-03,-5.536507000000000407e-03,-6.575726999999999961e-03,-6.437586999999999823e-03,-6.852007000000000236e-03,-6.546831000000000352e-03,-6.684970000000000148e-03,-6.823108999999999945e-03,-7.491254999999999616e-03,-6.699418000000000387e-03,-6.408691000000000214e-03,-6.837557000000000183e-03,-6.394241999999999634e-03,-6.423141000000000267e-03,-6.713867000000000099e-03,-6.590178999999999829e-03,-6.394241999999999634e-03,-4.381699000000000184e-03,-4.119872999999999591e-03,-3.981735000000000135e-03,-4.272460999999999967e-03,-4.243560000000000387e-03,-3.981735999999999609e-03,-4.119872999999999591e-03,-4.090970999999999670e-03,-3.705462999999999986e-03,-4.134323999999999985e-03,-4.105422000000000064e-03,-4.119872999999999591e-03,-3.981736999999999950e-03,-4.243557000000000232e-03,-4.214652999999999629e-03,-4.119872999999999591e-03,-3.981736999999999950e-03,-4.119872999999999591e-03,-4.119872999999999591e-03,-4.243555000000000417e-03,-4.272460999999999967e-03,-3.843603000000000124e-03,-4.258007999999999758e-03,-4.119872999999999591e-03,-4.134327000000000141e-03,-4.090965999999999700e-03,-4.119872999999999591e-03,-4.119872999999999591e-03,-4.134327000000000141e-03,-4.105418999999999909e-03,-2.107322000000000015e-03,-1.831055000000000052e-03,-1.554788000000000090e-03,-1.678466999999999893e-03,-2.971444000000000168e-03,-3.829152000000000163e-03,-4.243550999999999920e-03,-4.381682999999999932e-03,-4.119872999999999591e-03,-4.134328999999999955e-03,-4.090962000000000071e-03,-3.981740999999999579e-03,-3.037301999999999971e-03,-1.678466999999999893e-03,-1.940274000000000078e-03,-1.387746999999999939e-03,-1.649553999999999907e-03,-1.692923999999999948e-03,-1.831055000000000052e-03,-1.525878999999999951e-03,-1.678466999999999893e-03,-1.787682999999999980e-03,-1.707381999999999910e-03,-3.858069999999999902e-03,-4.119872999999999591e-03,-4.396132999999999985e-03,-5.093232999999999962e-03,-6.575738000000000243e-03,-6.590196000000000422e-03,-8.516005000000000102e-03,-9.111898000000000220e-03,-8.726427000000000142e-03,-8.740886999999999268e-03,-9.002685999999999328e-03,-9.017145000000000715e-03,-8.014860999999999860e-03,-6.423151000000000208e-03,-6.270562999999999831e-03,-6.575738999999999716e-03,-6.575738999999999716e-03,-6.699407000000000105e-03,-7.825363000000000110e-03,-9.155273000000000230e-03,-8.864557999999999813e-03,-1.040489799999999923e-02,-1.133488600000000061e-02,-1.170588499999999921e-02,-1.266479499999999953e-02,-1.158221800000000003e-02,-1.116783900000000058e-02,-1.132042699999999923e-02,-1.030366800000000020e-02,-8.959299999999999903e-03,-6.532355000000000106e-03,-4.352738000000000093e-03,-1.678466999999999893e-03,1.474527999999999906e-03,4.526286000000000025e-03,9.242049000000000444e-03,1.168345600000000005e-02,1.517851599999999954e-02,1.775804799999999850e-02,2.000347699999999868e-02,2.142015800000000164e-02,2.273559600000000028e-02,2.275005899999999956e-02,2.418120600000000023e-02,2.503887800000000052e-02,2.535851800000000003e-02,2.532958999999999905e-02,2.519146599999999916e-02,2.528619600000000037e-02,2.291711299999999937e-02,2.272113099999999858e-02,2.275006099999999851e-02,2.301184100000000163e-02,2.288818399999999892e-02,2.296844500000000053e-02,2.073748799999999837e-02,2.043231200000000108e-02,1.903008900000000003e-02,1.814349300000000012e-02,1.700304700000000030e-02,1.539691099999999924e-02,1.310809200000000001e-02,1.294103800000000019e-02,1.081927400000000025e-02,1.049963100000000059e-02,8.530454999999999288e-03,8.072690999999999895e-03,6.212701999999999634e-03,4.396113999999999578e-03,3.466119000000000144e-03,2.063891999999999897e-03,1.039180000000000008e-03,-2.249279999999999986e-04,-1.525878999999999951e-03,-1.554814999999999973e-03,-3.814697000000000140e-03,-4.177746999999999884e-03,-6.117983999999999922e-03,-7.425501000000000150e-03,-8.879035999999999873e-03,-1.087714799999999968e-02,-1.246090400000000008e-02,-1.362373000000000056e-02,-1.615984700000000149e-02,-1.632690399999999972e-02,-1.621772599999999828e-02,-1.606513799999999964e-02,-1.632690399999999972e-02,-1.646502199999999930e-02,-1.647949199999999836e-02,-1.634137500000000173e-02,-1.631243400000000066e-02,-1.517196399999999959e-02,-1.362373499999999966e-02,-1.414726000000000004e-02,-1.376185299999999924e-02,-1.387102699999999932e-02,-1.396572800000000017e-02,-1.132044700000000084e-02,-1.142961999999999971e-02,-1.045620499999999967e-02,-8.988213000000000105e-03,-8.973741000000000356e-03,-6.699395000000000350e-03,-6.670449999999999643e-03,-6.408691000000000214e-03,-6.590224999999999903e-03,-6.408691000000000214e-03,-6.713867000000000099e-03,-6.546805999999999633e-03,-6.713867000000000099e-03,-6.851982000000000385e-03,-6.423164999999999777e-03,-6.684919000000000104e-03,-6.684919000000000104e-03,-6.408691000000000214e-03,-6.561278999999999723e-03,-6.684917999999999763e-03,-6.532330000000000254e-03,-6.546805000000000159e-03,-6.699392000000000194e-03,-6.699392000000000194e-03,-6.699392000000000194e-03,-6.408691000000000214e-03,-6.437642000000000364e-03,-6.561278999999999723e-03,-6.561278999999999723e-03,-6.684914999999999607e-03,-5.253719999999999918e-03,-3.938332999999999591e-03,-4.396096000000000378e-03,-4.134348999999999837e-03,-4.119872999999999591e-03,-4.076442999999999907e-03,-1.802100999999999963e-03,-1.663989999999999957e-03,-1.416722000000000033e-03,-1.525878999999999951e-03,6.248290000000000311e-04,1.053637999999999970e-03,7.629390000000000217e-04,9.155269999999999641e-04,1.053637000000000063e-03,6.103519999999999866e-04,6.248300000000000468e-04,1.039158000000000096e-03,7.484609999999999614e-04,-4.065270000000000060e-04,-1.569316000000000070e-03,-3.705546000000000100e-03,-7.425573000000000416e-03,-1.204664800000000008e-02,-1.722015899999999877e-02,-2.354866099999999851e-02,-3.273289599999999744e-02,-4.255644299999999935e-02,-5.584607300000000302e-02,-7.058139400000000563e-02,-8.801985800000000637e-02,-1.057200580000000056e-01,-1.238345790000000002e-01,-1.407718390000000097e-01,-1.560963350000000027e-01,-1.684414760000000066e-01,-1.774664220000000125e-01,-1.822333849999999977e-01,-1.824951170000000122e-01,-1.814492550000000037e-01,-1.748300479999999879e-01,-1.647959780000000096e-01,-1.505473730000000121e-01,-1.326076929999999987e-01,-1.123357469999999997e-01,-8.676666800000000512e-02,-5.773151499999999714e-02,-2.486717999999999915e-02,9.246824000000000709e-03,4.668879799999999664e-02,8.933324500000000556e-02,1.344480650000000055e-01,1.827382670000000098e-01,2.317479580000000039e-01,2.823936830000000064e-01,2.985053659999999942e-01,3.106659119999999885e-01,3.563833439999999908e-01,4.054876869999999855e-01,4.531608019999999737e-01,4.976585370000000119e-01,5.414802410000000288e-01,5.854400490000000179e-01,6.281067280000000030e-01,6.707656699999999805e-01,7.135559660000000415e-01,7.551690140000000273e-01,7.946892859999999947e-01,8.340279999999999916e-01,8.728944629999999538e-01,9.086512239999999796e-01,9.398013729999999955e-01,9.642086800000000402e-01,9.786475479999999783e-01,9.783578170000000185e-01,9.634997960000000194e-01,9.350537270000000012e-01,8.967985680000000182e-01,8.482543500000000458e-01,7.937592009999999698e-01,7.321648549999999478e-01,6.686737900000000456e-01,6.033371830000000546e-01,5.389885420000000149e-01,4.754173289999999996e-01,4.153556389999999987e-01,3.567908519999999917e-01,3.014593879999999948e-01,2.473776059999999999e-01,1.957883990000000018e-01,1.468801190000000034e-01,1.005803229999999993e-01,5.622070400000000329e-02,1.570476200000000058e-02,-2.314720099999999919e-02,-5.908550399999999703e-02,-9.241532099999999472e-02,-1.221120069999999946e-01,-1.478124269999999962e-01,-1.710714389999999918e-01,-1.908643979999999907e-01,-2.074095390000000039e-01,-2.207793150000000038e-01,-2.332335610000000059e-01,-2.420256980000000113e-01,-2.494300510000000137e-01,-2.521766340000000106e-01,-2.535720920000000267e-01,-2.537101880000000032e-01,-2.512977639999999790e-01,-2.475921789999999956e-01,-2.448166129999999885e-01,-2.405296590000000068e-01,-2.367729299999999926e-01,-2.329002619999999968e-01,-2.297104080000000048e-01,-2.268547150000000123e-01,-2.233451939999999969e-01,-2.207367060000000047e-01,-2.182663129999999896e-01,-2.169509940000000081e-01,-2.146186949999999982e-01,-2.120826739999999988e-01,-2.107895029999999892e-01,-2.096412679999999917e-01,-2.085151769999999960e-01,-2.070617680000000072e-01,-2.060882629999999938e-01,-2.044677729999999916e-01,-2.031890919999999878e-01,-2.026077289999999864e-01,-2.010673550000000032e-01,-1.998611469999999890e-01,-1.976013179999999980e-01,-1.974052450000000070e-01,-1.950073240000000097e-01,-1.947021479999999916e-01,-1.927040100000000089e-01,-1.912582399999999960e-01,-1.904006960000000082e-01,-1.887878400000000123e-01,-1.877777079999999876e-01,-1.855033859999999923e-01,-1.838249190000000033e-01,-1.815216030000000036e-01,-1.801918020000000120e-01,-1.780265779999999909e-01,-1.757812500000000000e-01,-1.740302970000000005e-01,-1.728530849999999897e-01,-1.705787639999999938e-01,-1.693145679999999986e-01,-1.680793660000000078e-01,-1.658485389999999893e-01,-1.644462519999999872e-01,-1.629348710000000089e-01,-1.605514580000000080e-01,-1.594398469999999957e-01,-1.582481410000000088e-01,-1.559448240000000097e-01,-1.557777369999999995e-01,-1.537940949999999918e-01,-1.520866290000000010e-01,-1.496597219999999950e-01,-1.485771070000000138e-01,-1.462882879999999886e-01,-1.436797939999999996e-01,-1.412673869999999943e-01,-1.389495679999999955e-01,-1.362319859999999994e-01,-1.337905789999999928e-01,-1.313491730000000135e-01,-1.289222670000000071e-01,-1.266189480000000089e-01,-1.251876520000000104e-01,-1.230369199999999941e-01,-1.214744620000000053e-01,-1.203338399999999975e-01,-1.188659670000000029e-01,-1.191276379999999940e-01,-1.167297360000000006e-01,-1.166862300000000019e-01,-1.144409180000000026e-01,-1.136924809999999980e-01,-1.122611800000000021e-01,-1.105682109999999996e-01,-1.096816879999999994e-01,-1.071312019999999948e-01,-1.055473110000000048e-01,-1.043701169999999984e-01,-1.032294859999999953e-01,-1.020522920000000028e-01,-1.007880780000000032e-01,-9.966890000000000471e-02,-9.833216599999999863e-02,-9.706040200000000395e-02,-9.608685899999999669e-02,-9.472807199999999650e-02,-9.231567400000000034e-02,-9.211957199999999679e-02,-8.984525799999999729e-02,-8.940199899999999589e-02,-8.741835600000000261e-02,-8.740385100000000462e-02,-8.643030200000000052e-02,-8.483886699999999836e-02,-8.508602099999999779e-02,-8.268813099999999805e-02,-8.128582800000000441e-02,-8.013765500000000208e-02,-7.878639599999999465e-02,-7.710040399999999738e-02,-7.622141300000000175e-02,-7.508774899999999530e-02,-7.490614800000000573e-02,-7.289349100000000470e-02,-7.275541000000000647e-02,-7.150569199999999570e-02,-7.019042999999999810e-02,-6.891169699999999398e-02,-6.769099300000000485e-02,-6.561279300000000259e-02,-6.429053499999999588e-02,-6.285170299999999488e-02,-6.184912699999999680e-02,-6.014864500000000058e-02,-5.929865599999999820e-02,-5.815049500000000343e-02,-5.769273099999999710e-02,-5.583265899999999976e-02,-5.548395600000000094e-02,-5.310058599999999823e-02,-5.293348900000000024e-02,-5.198894200000000326e-02,-5.052110099999999882e-02,-5.052110199999999829e-02,-4.938043699999999925e-02,-4.818875300000000084e-02,-4.820326300000000314e-02,-4.704808600000000285e-02,-4.563828999999999803e-02,-4.600898999999999961e-02,-4.347303799999999857e-02,-4.329142799999999985e-02,-4.119873000000000285e-02,-3.975288400000000222e-02,-3.859022499999999883e-02,-3.843763699999999672e-02,-3.732598699999999797e-02,-3.584364300000000142e-02,-3.566203099999999682e-02,-3.384548799999999996e-02,-3.367838699999999713e-02,-3.126600499999999949e-02,-3.096082899999999874e-02,-2.885362400000000133e-02,-2.824327299999999930e-02,-2.867201100000000072e-02,-2.737874200000000105e-02,-2.612155600000000064e-02,-2.620157700000000020e-02,-2.596896799999999852e-02,-2.607801599999999900e-02,-2.625963099999999856e-02,-2.606350199999999881e-02,-2.610704299999999992e-02,-2.593994100000000108e-02,-2.437051999999999968e-02,-2.366563799999999926e-02,-2.349853500000000095e-02,-2.134778999999999843e-02,-2.131875999999999910e-02,-1.893541300000000163e-02,-1.850668000000000105e-02,-1.765664899999999995e-02,-1.618883200000000022e-02,-1.645046099999999956e-02,-1.403808599999999997e-02,-1.403808599999999997e-02,-1.405260200000000084e-02,-1.271576999999999950e-02,-1.142957500000000085e-02,-1.158216299999999949e-02,-1.028887700000000009e-02,-9.017202000000000203e-03,-9.169790000000000579e-03,-7.861985000000000154e-03,-6.684833000000000268e-03,-6.452242999999999867e-03,-6.532244000000000418e-03,-5.420575999999999867e-03,-4.090838000000000287e-03,-4.119872999999999591e-03,-2.855616000000000057e-03,-1.663949000000000070e-03,-1.554915999999999937e-03,-2.471020000000000204e-04,7.919770000000000238e-04,2.027198999999999928e-03,3.247901999999999994e-03,5.369613999999999984e-03,7.062600999999999948e-03,8.087158000000000541e-03,9.198832000000000536e-03,1.071019200000000032e-02,1.280286299999999940e-02,1.409616600000000025e-02,1.527330900000000054e-02,1.794729000000000116e-02,1.831054699999999993e-02,2.047581799999999980e-02,2.033775100000000113e-02,2.258300800000000164e-02,2.317883800000000022e-02,2.502441399999999830e-02,2.549669900000000114e-02,2.732775399999999924e-02,2.780003899999999861e-02,2.978368199999999882e-02,3.118601699999999990e-02,3.269737400000000127e-02,3.468101700000000148e-02,3.609787500000000149e-02,3.755114300000000210e-02,3.866282599999999736e-02,3.954930899999999777e-02,4.050840499999999733e-02,4.183812800000000220e-02,4.322594200000000331e-02,4.440307599999999966e-02,4.554380799999999813e-02,4.702611699999999922e-02,4.827586799999999956e-02,4.959106399999999720e-02,5.142211900000000224e-02,5.286803100000000283e-02,5.435033699999999857e-02,5.637755299999999692e-02,5.891344999999999915e-02,6.005418900000000088e-02,6.150744500000000087e-02,6.278624800000000283e-02,6.411596399999999751e-02,6.535119300000000186e-02,6.665185699999999491e-02,6.637573200000000673e-02,6.750195000000000500e-02,6.894067500000000681e-02,7.011047199999999313e-02,7.128759699999999422e-02,7.160729899999999926e-02,7.357641600000000559e-02,7.385253899999999483e-02,7.499328800000000517e-02,7.644653299999999707e-02,7.661364800000000641e-02,7.858276399999999939e-02,7.859729099999999968e-02,7.973804299999999456e-02,8.090063699999999747e-02,8.116223000000000187e-02,8.077710500000000182e-02,8.103869800000000623e-02,8.132934599999999681e-02,8.105322600000000599e-02,8.103869800000000623e-02,8.103869800000000623e-02,8.105322700000000546e-02,8.090063999999999589e-02,8.127122999999999986e-02,7.917858599999999525e-02,7.887341000000000490e-02,7.747105999999999437e-02,7.641747399999999912e-02,7.414318500000000034e-02,7.369995099999999966e-02,7.141113300000000164e-02,7.028489699999999896e-02,6.769090199999999724e-02,6.636120199999999414e-02,6.447202500000000225e-02,6.203061800000000264e-02,5.932762800000000031e-02,5.577451299999999779e-02,5.304246199999999856e-02,5.072457999999999828e-02,4.722958900000000237e-02,4.344395399999999990e-02,4.079183299999999956e-02,3.778366999999999837e-02,3.531319900000000345e-02,3.180367600000000294e-02,2.893356999999999873e-02,2.447945600000000013e-02,2.187092800000000128e-02,1.698811500000000155e-02,1.227242199999999984e-02,9.387783999999999712e-03,4.643025999999999751e-03,1.053581999999999956e-03,-2.528606999999999990e-03,-7.534940999999999861e-03,-1.028152300000000074e-02,-1.476470799999999965e-02,-1.824516299999999827e-02,-2.240863900000000103e-02,-2.581642199999999859e-02,-2.941314999999999902e-02,-3.304619200000000201e-02,-3.687542500000000334e-02,-4.066105300000000256e-02,-4.407612699999999967e-02,-4.794166799999999978e-02,-5.164738299999999810e-02,-5.436489500000000336e-02,-5.666825000000000334e-02,-5.909512100000000046e-02,-6.167457900000000021e-02,-6.400700600000000517e-02,-6.658646499999999746e-02,-6.779263200000000544e-02,-6.991432699999999834e-02,-7.218860900000000080e-02,-7.375809799999999417e-02,-7.494972799999999324e-02,-7.708595899999999557e-02,-7.879350000000000243e-02,-7.997059199999999313e-02,-8.212136000000000435e-02,-8.257912400000000375e-02,-8.454822900000000252e-02,-8.471535500000000607e-02,-8.624123399999999995e-02,-8.726573499999999706e-02,-8.767988399999999960e-02,-8.740378399999999826e-02,-8.741832300000000611e-02,-8.714222400000000424e-02,-8.715676299999999821e-02,-8.741832200000000663e-02,-8.770895900000000300e-02,-8.729481299999999888e-02,-8.613946100000000050e-02,-8.480978799999999707e-02,-8.470081899999999664e-02,-8.480978699999999759e-02,-8.471535900000000396e-02,-8.482432700000000492e-02,-8.482432700000000492e-02,-8.281160299999999752e-02,-8.225941400000000292e-02,-8.199786000000000574e-02,-8.225941400000000292e-02,-8.111859400000000220e-02,-7.981800799999999585e-02,-7.981800799999999585e-02,-7.898236200000000040e-02,-7.751464800000000543e-02,-7.763815300000000141e-02,-7.536387599999999631e-02,-7.481169199999999908e-02,-7.420850800000000635e-02,-7.235574499999999909e-02,-7.133842099999999908e-02,-7.034301799999999327e-02,-6.915855999999999393e-02,-6.774902300000000543e-02,-6.773447999999999969e-02,-6.548929100000000503e-02,-6.515502900000000319e-02,-6.303334200000000609e-02,-6.282258000000000286e-02,-6.039571700000000154e-02,-6.057739300000000021e-02,-5.913138099999999675e-02,-5.812144200000000233e-02,-5.766367800000000293e-02,-5.594157799999999875e-02,-5.578898999999999664e-02,-5.296254300000000081e-02,-5.323862900000000259e-02,-5.185079299999999919e-02,-5.079722200000000298e-02,-5.073904099999999862e-02,-4.837036100000000061e-02,-4.832672500000000093e-02,-4.720042599999999672e-02,-4.550028300000000248e-02,-4.462097599999999969e-02,-4.334950700000000240e-02,-4.330586799999999736e-02,-4.116963800000000145e-02,-4.087900800000000140e-02,-4.063201899999999839e-02,-3.970906400000000225e-02,-3.814697300000000069e-02,-3.810333099999999723e-02,-3.845214799999999850e-02,-3.859018899999999697e-02,-3.817606800000000050e-02,-3.817606800000000050e-02,-3.843760100000000179e-02,-3.829956100000000280e-02,-3.846669700000000108e-02,-3.721689699999999879e-02,-3.587270299999999884e-02,-3.598164499999999960e-02,-3.584360600000000008e-02,-3.499337300000000123e-02,-3.326416000000000095e-02,-3.340219900000000047e-02,-3.323506100000000324e-02,-3.098989099999999858e-02,-3.111337999999999951e-02,-3.096079200000000087e-02,-2.987812700000000085e-02,-2.882456099999999855e-02,-2.853393599999999933e-02,-2.839589799999999928e-02,-2.754565600000000170e-02,-2.592539099999999902e-02,-2.595449199999999915e-02,-2.598359399999999875e-02,-2.593994100000000108e-02,-2.412343800000000052e-02,-2.381826199999999977e-02,-2.363657200000000153e-02,-2.366567500000000060e-02,-2.365112299999999959e-02,-2.363657099999999858e-02,-2.366567500000000060e-02,-2.251024700000000059e-02,-2.123882100000000148e-02,-2.137685699999999911e-02,-2.118061200000000144e-02,-1.948759200000000150e-02,-1.893545099999999898e-02,-1.907348600000000061e-02,-1.764198200000000050e-02,-1.660297300000000004e-02,-1.645038500000000140e-02,-1.632690399999999972e-02,-1.603628199999999893e-02,-1.506253899999999979e-02,-1.388549799999999959e-02,-1.362398499999999991e-02,-1.397986900000000067e-02,-1.388549799999999959e-02,-1.390005300000000076e-02,-1.390005300000000076e-02,-1.376201999999999981e-02,-1.388549799999999959e-02,-1.416156300000000028e-02,-1.376202099999999928e-02,-1.385638699999999952e-02,-1.417611799999999971e-02,-1.400897400000000043e-02,-1.417611799999999971e-02,-1.376202200000000049e-02,-1.374746599999999985e-02,-1.387094200000000069e-02,-1.402352899999999986e-02,-1.257745499999999954e-02,-1.130606099999999919e-02,-1.145864899999999957e-02,-1.132061799999999931e-02,-1.267935199999999964e-02,-1.249765000000000077e-02,-1.159667999999999984e-02,-1.173471000000000063e-02,-1.130606200000000040e-02,-1.115347400000000003e-02,-1.155300499999999987e-02,-1.118259100000000041e-02,-1.142953300000000040e-02,-1.156756299999999946e-02,-1.140041600000000002e-02,-1.257044199999999938e-02,-1.402352699999999917e-02,-1.402352699999999917e-02,-1.376202900000000028e-02,-1.416155499999999928e-02,-1.377658900000000054e-02,-1.387093799999999932e-02,-1.360944199999999937e-02,-1.376202999999999975e-02,-1.373290999999999921e-02,-1.388549799999999959e-02,-1.374747100000000069e-02,-1.381269499999999983e-02,-1.158211900000000009e-02,-1.101544999999999955e-02,-1.144409199999999946e-02,-1.145865299999999920e-02,-1.141496900000000050e-02,-1.144409199999999946e-02,-1.132062699999999977e-02,-1.129150400000000082e-02,-1.144409199999999946e-02,-9.416762999999999870e-03,-8.879222000000000850e-03,-8.988123000000000640e-03,-8.988123000000000640e-03,-8.864659999999999901e-03,-9.293298999999999657e-03,-9.002685999999999328e-03,-1.026707800000000066e-02,-1.132062999999999993e-02,-1.129150400000000082e-02,-1.172014099999999989e-02,-1.132063099999999940e-02,-1.059377000000000062e-02,-9.140709999999999807e-03,-8.988121999999999431e-03,-9.126145000000000437e-03,-8.712074000000000207e-03,-9.155273000000000230e-03,-8.850098000000000686e-03,-1.028164699999999966e-02,-1.172013799999999974e-02,-1.147322199999999993e-02,-1.158211500000000047e-02,-1.116804700000000039e-02,-1.130606900000000019e-02,-1.156754899999999989e-02,-1.129150400000000082e-02,-1.170557000000000021e-02,-1.159667999999999984e-02,-1.158211399999999926e-02,-1.156754699999999920e-02,-1.145865800000000004e-02,-1.130606999999999966e-02,-1.142952499999999941e-02,-1.147322500000000009e-02,-1.030314199999999951e-02,-8.988117999999999802e-03,-9.264160000000000450e-03,-9.155273000000000230e-03,-8.879233000000000264e-03,-9.002685999999999328e-03,-9.293292999999999346e-03,-9.140705000000000705e-03,-9.155273000000000230e-03,-1.129150400000000082e-02,-1.140038699999999967e-02,-1.170556199999999922e-02,-1.159667999999999984e-02,-1.147322899999999972e-02,-1.144409199999999946e-02,-1.159667999999999984e-02,-1.159667999999999984e-02,-1.144409199999999946e-02,-1.145866100000000019e-02,-1.129150400000000082e-02,-1.142952199999999925e-02,-1.048485400000000005e-02,-8.864667999999999159e-03,-9.278721000000000191e-03,-8.864667999999999159e-03,-9.017255999999999536e-03,-8.850098000000000686e-03,-7.738270000000000218e-03,-6.423261999999999895e-03,-6.546708000000000041e-03,-6.423263000000000236e-03,-6.147230000000000055e-03,-4.243318000000000263e-03,-4.010999999999999809e-03,-4.272460999999999967e-03,-4.090729000000000413e-03,-3.967285000000000082e-03,-4.076156000000000050e-03,-4.257887999999999604e-03,-3.981857999999999578e-03,-3.829270000000000070e-03,-4.228741999999999744e-03,-4.076154000000000235e-03,-1.816481999999999906e-03,-1.816480999999999998e-03,-1.663893000000000056e-03,-1.387865000000000062e-03,-1.649319000000000002e-03,-1.678466999999999893e-03,-1.417012999999999953e-03,-1.831055000000000052e-03,-1.540453000000000005e-03,-2.107082000000000139e-03,-1.969068000000000034e-03,-1.525878999999999951e-03,-1.663891999999999932e-03,-1.525878999999999951e-03,-1.525878999999999951e-03,-1.678466999999999893e-03,-1.402442000000000055e-03,-1.373291000000000008e-03,7.483639999999999520e-04,-3.489030000000000169e-04,-1.249855000000000020e-03,-1.649314000000000032e-03,-1.678466999999999893e-03,-1.831055000000000052e-03,-1.402444000000000086e-03,-1.816478000000000060e-03,-1.816478000000000060e-03,-1.678466999999999893e-03,-1.663889999999999900e-03,-1.525878999999999951e-03,-1.402445999999999901e-03,-1.678466999999999893e-03,-1.801899000000000035e-03,-1.540457000000000068e-03,-1.649311000000000093e-03,-1.845632999999999952e-03,-1.540457000000000068e-03,-6.900469999999999477e-04,6.103519999999999866e-04,9.009489999999999556e-04,6.249299999999999950e-04,7.775180000000000459e-04,7.775189999999999532e-04,6.249310000000000108e-04,7.775189999999999532e-04,5.957719999999999466e-04,7.775189999999999532e-04,9.009470000000000325e-04,7.483589999999999817e-04,9.301080000000000198e-04,7.921000000000000089e-04,9.009470000000000325e-04,9.155269999999999641e-04,-3.780799999999999851e-04,-1.663886000000000054e-03,-1.663886000000000054e-03,-1.540460000000000006e-03,-1.816473000000000089e-03,-1.816473000000000089e-03,-8.134560000000000532e-04,9.155269999999999641e-04,9.009450000000000010e-04,7.483569999999999502e-04,7.629390000000000217e-04,8.863630000000000380e-04,7.629390000000000217e-04,1.009785000000000023e-03,9.009450000000000010e-04,9.155269999999999641e-04,7.483560000000000429e-04,9.009439999999999853e-04,6.249349999999999654e-04,9.009439999999999853e-04,6.103519999999999866e-04,7.483560000000000429e-04,9.009429999999999696e-04,7.337710000000000326e-04,6.249359999999999811e-04,9.155269999999999641e-04,7.629390000000000217e-04,7.775240000000000319e-04,7.775240000000000319e-04,7.483550000000000271e-04,9.009419999999999538e-04,1.765978000000000079e-03,3.204345999999999844e-03,3.051757999999999901e-03,3.175173999999999792e-03,3.204345999999999844e-03,2.913755999999999985e-03,3.248103999999999922e-03,5.355162000000000116e-03,5.631165999999999949e-03,5.645752000000000409e-03,5.827513000000000311e-03,7.811155999999999655e-03,8.130919000000000341e-03,8.181397999999999449e-03,6.059753999999999662e-03,5.798339999999999918e-03,5.493164000000000033e-03,5.601988999999999927e-03,3.618346000000000149e-03,3.356933999999999786e-03,3.175170000000000162e-03,1.053527000000000066e-03,1.024350000000000043e-03,7.629390000000000217e-04,1.765999000000000084e-03,2.928347999999999889e-03,3.327755999999999856e-03,3.327754999999999949e-03,3.218935000000000025e-03,3.204345999999999844e-03,2.790350999999999942e-03,3.080937000000000172e-03,3.233525000000000114e-03,2.957529999999999881e-03,3.189756000000000188e-03,3.327753000000000135e-03,3.204345999999999844e-03,3.175165000000000192e-03,3.175163999999999851e-03,3.080938999999999987e-03,3.480340000000000170e-03,3.080939999999999894e-03,3.204345999999999844e-03,2.928352999999999859e-03,3.051757999999999901e-03,3.204345999999999844e-03,3.189753999999999940e-03,3.327749999999999979e-03,3.218938000000000181e-03,5.493164000000000033e-03,5.674936999999999690e-03,5.631159000000000164e-03,4.504672999999999837e-03,3.342340999999999975e-03,3.233531999999999899e-03,3.051757999999999901e-03,3.313154000000000012e-03,3.342340000000000068e-03,3.175158999999999881e-03,3.066351000000000146e-03,3.342340000000000068e-03,3.066352000000000053e-03,3.066352000000000053e-03,2.092447999999999791e-03,6.103519999999999866e-04,9.155269999999999641e-04,7.629390000000000217e-04,6.395409999999999810e-04,6.249470000000000459e-04,7.629390000000000217e-04,7.337490000000000115e-04,8.863369999999999539e-04,1.053520000000000064e-03,9.155269999999999641e-04,7.921309999999999549e-04,7.483429999999999466e-04,1.053518999999999940e-03,4.723600000000000108e-04,9.155269999999999641e-04,7.629390000000000217e-04,6.249479999999999532e-04,6.249479999999999532e-04,6.395459999999999513e-04,9.301239999999999465e-04,9.009299999999999817e-04,9.009299999999999817e-04,6.541439999999999495e-04,6.249489999999999689e-04,1.889445999999999921e-03,3.037160000000000120e-03,1.329497000000000014e-03,7.629390000000000217e-04,9.009289999999999660e-04,8.717319999999999540e-04,6.249499999999999847e-04,5.161589999999999755e-04,2.804978000000000072e-03,3.204345999999999844e-03,3.218944999999999966e-03,2.899169999999999959e-03,3.218944999999999966e-03,3.327734000000000161e-03,3.066357999999999931e-03,3.066357999999999931e-03,3.342332999999999849e-03,3.342332999999999849e-03,2.928370999999999925e-03,3.080958999999999868e-03,3.509520999999999821e-03,3.465718999999999918e-03,3.327731999999999912e-03,3.218947000000000214e-03,3.204345999999999844e-03,4.483454999999999906e-03,5.645752000000000409e-03,5.645752000000000409e-03,5.522367999999999721e-03,5.355178000000000368e-03,5.798339999999999918e-03,5.674956999999999571e-03,5.645752000000000409e-03,5.783736999999999732e-03,5.631149000000000224e-03,7.643996999999999598e-03,8.101761000000000726e-03,8.225143000000000731e-03,7.934570000000000164e-03,6.793437999999999734e-03,5.783736000000000259e-03,5.522372000000000218e-03,5.812943999999999577e-03,5.522372000000000218e-03,5.631147999999999883e-03,5.921718999999999768e-03,5.631147999999999883e-03,5.631147000000000409e-03,5.783734999999999918e-03,5.660357000000000409e-03,5.660357000000000409e-03,5.631147000000000409e-03,5.660357000000000409e-03,5.493164000000000033e-03,5.493164000000000033e-03,5.798339999999999918e-03,5.769128000000000103e-03,3.480309000000000007e-03,3.218952000000000185e-03,3.037151999999999994e-03,3.371540000000000127e-03,3.327720000000000157e-03,3.051757999999999901e-03,3.022543999999999838e-03,1.344076999999999945e-03,6.395660000000000494e-04,9.155269999999999641e-04,8.863119999999999939e-04,8.717049999999999625e-04,6.249590000000000180e-04,-3.636070000000000036e-04,-1.540487000000000106e-03,-1.387898999999999947e-03,-1.402508000000000010e-03,-3.967285000000000082e-03,-4.134482000000000088e-03,-4.119872999999999591e-03,-4.105263999999999962e-03,-3.967285000000000082e-03,-3.981893999999999711e-03,-2.869950999999999926e-03,-1.939813999999999991e-03,-1.649248000000000077e-03,4.869830000000000231e-04,6.395710000000000197e-04,9.009169999999999939e-04,1.860274999999999993e-03,3.218955999999999814e-03,3.451080000000000033e-03,1.191482000000000001e-03,6.249619999999999568e-04,-4.869850000000000003e-04,-1.649244999999999921e-03,-2.027475999999999844e-03,-3.952673999999999771e-03,-3.981896999999999867e-03,-4.119872999999999591e-03,-2.978699000000000017e-03,-1.693078999999999895e-03,-2.467279999999999864e-04,9.301399999999999816e-04,2.957618999999999873e-03,5.231826000000000185e-03,7.186243000000000145e-03,9.257562999999999903e-03,1.286122200000000028e-02,1.502667899999999938e-02,1.745347200000000112e-02,1.989487900000000073e-02,2.143537200000000115e-02,2.291741099999999864e-02,2.490105399999999886e-02,2.532958999999999905e-02,2.519161600000000001e-02,2.532958999999999905e-02,2.517700200000000041e-02,2.534420399999999865e-02,2.488644099999999873e-02,2.543833300000000047e-02,2.519161699999999948e-02,2.531497499999999998e-02,2.517700200000000041e-02,2.519161699999999948e-02,2.389783700000000163e-02,2.290279900000000146e-02,2.284433599999999981e-02,2.070810500000000096e-02,2.027957299999999866e-02,1.855725800000000009e-02,1.796152200000000060e-02,1.597787900000000039e-02,1.413220700000000080e-02,1.294073700000000077e-02,1.095709400000000056e-02,9.126039000000000720e-03,8.254363000000000672e-03,7.098544000000000034e-03,5.798339999999999918e-03,4.337342999999999581e-03,2.928404999999999810e-03,2.928406000000000151e-03,1.939788000000000016e-03,9.009089999999999763e-04,6.395879999999999621e-04,7.921760000000000130e-04,-6.542079999999999814e-04,-1.555116000000000050e-03,-1.417148000000000019e-03,-1.860293000000000059e-03,-3.829316000000000143e-03,-4.257842000000000397e-03,-3.996524000000000430e-03,-6.423311000000000125e-03,-6.575898999999999633e-03,-7.840461999999999432e-03,-9.307861000000000606e-03,-9.155273000000000230e-03,-9.140653000000000319e-03,-8.893958999999999893e-03,-8.864718000000000597e-03,-9.002685999999999328e-03,-8.864719000000000071e-03,-9.140652000000000846e-03,-9.126030999999999727e-03,-9.249376000000000125e-03,-8.864719000000000071e-03,-8.973441999999999877e-03,-7.999426999999999927e-03,-6.699245000000000373e-03,-6.379446999999999895e-03,-4.134495000000000184e-03,-3.996529999999999874e-03,-3.981908000000000149e-03,-3.952662000000000016e-03,-2.230326999999999830e-03,-1.649220999999999977e-03,-1.678466999999999893e-03,-1.816431000000000079e-03,-1.417160999999999898e-03,-3.829321000000000114e-03,-4.257837000000000427e-03,-4.272460999999999967e-03,-4.090624999999999643e-03,-4.119872999999999591e-03,-4.119872999999999591e-03,-4.243211999999999678e-03,-4.119872999999999591e-03,-4.119872999999999591e-03,-4.257836000000000086e-03,-4.366548999999999951e-03,-3.843946999999999902e-03,-1.845679999999999934e-03,-1.540504000000000049e-03,-1.540504000000000049e-03,-1.816429000000000047e-03,-1.693092999999999898e-03,-1.801803000000000042e-03,-1.555130999999999961e-03,-1.540504999999999956e-03,-1.649213999999999975e-03,-1.511252000000000038e-03,-1.663839999999999980e-03,-1.249957000000000108e-03,-1.693094000000000023e-03,-1.525878999999999951e-03,-1.801800000000000103e-03,-1.801800000000000103e-03,-1.540506000000000080e-03,-1.693094000000000023e-03,-1.801798999999999979e-03,-1.678466999999999893e-03,-1.954385999999999797e-03,-1.540506999999999987e-03,-1.816426000000000108e-03,-1.525878999999999951e-03,-1.910498999999999965e-03,-2.514549999999999945e-03,-4.134501999999999969e-03,-6.314619999999999955e-03,-1.011468899999999962e-02,-1.259998399999999984e-02,-1.833351399999999867e-02,-2.439314199999999960e-02,-3.272066800000000136e-02,-4.236296800000000085e-02,-5.343707899999999844e-02,-6.764238599999999879e-02,-8.386059699999999506e-02,-1.009504449999999998e-01,-1.178877049999999954e-01,-1.348542259999999937e-01,-1.509846539999999959e-01,-1.642159109999999922e-01,-1.769162469999999987e-01,-1.836510209999999976e-01,-1.886864219999999925e-01,-1.898193360000000052e-01,-1.867884790000000073e-01,-1.807497580000000104e-01,-1.712454109999999863e-01,-1.582524379999999953e-01,-1.400505770000000094e-01,-1.169073729999999950e-01,-8.935375099999999515e-02,-5.902427899999999894e-02,-2.478605199999999939e-02,1.250393500000000074e-02,5.504044300000000139e-02,1.021253240000000034e-01,1.521240100000000040e-01,2.057116390000000017e-01,2.571337710000000110e-01,3.097034350000000269e-01,3.613868390000000153e-01,4.102296089999999951e-01,4.590431110000000037e-01,5.077186590000000166e-01,5.548097899999999694e-01,6.010732009999999459e-01,6.464858629999999939e-01,6.923855580000000121e-01,7.345144609999999519e-01,7.781546080000000254e-01,8.209879079999999885e-01,8.627677280000000115e-01,9.016044709999999629e-01,9.344965109999999742e-01,9.604280490000000059e-01,9.750743050000000300e-01,9.771790750000000081e-01,9.666922260000000433e-01,9.423700050000000106e-01,9.042208259999999775e-01,8.558420350000000010e-01,8.000010709999999525e-01,7.394591550000000346e-01,6.758885390000000104e-01,6.126878629999999992e-01,5.512242040000000509e-01,4.914975639999999979e-01,4.345175079999999967e-01,3.786117749999999837e-01,3.236446390000000117e-01,2.716414340000000149e-01,2.214839219999999997e-01,1.740583539999999985e-01,1.282611379999999968e-01,8.538393099999999625e-02,4.492729499999999904e-02,8.444141999999999967e-03,-2.746413300000000168e-02,-5.864218000000000208e-02,-8.641318300000000452e-02,-1.133626870000000036e-01,-1.360104480000000060e-01,-1.568271529999999969e-01,-1.730808600000000030e-01,-1.874094849999999868e-01,-1.988890429999999876e-01,-2.091918180000000016e-01,-2.139721450000000025e-01,-2.167187279999999994e-01,-2.187817529999999955e-01,-2.169946219999999981e-01,-2.156714289999999978e-01,-2.132446630000000010e-01,-2.109558440000000035e-01,-2.084851530000000064e-01,-2.059204420000000091e-01,-2.037695690000000115e-01,-2.022876160000000034e-01,-2.000427250000000046e-01,-1.984729179999999982e-01,-1.971435549999999981e-01,-1.972814999999999985e-01,-1.952978569999999914e-01,-1.951306260000000015e-01,-1.949926810000000010e-01,-1.938659919999999870e-01,-1.925366310000000136e-01,-1.925512739999999945e-01,-1.914245830000000093e-01,-1.899719239999999865e-01,-1.899572800000000061e-01,-1.899426349999999986e-01,-1.877917600000000020e-01,-1.871166880000000032e-01,-1.874072190000000138e-01,-1.862658799999999948e-01,-1.852270540000000021e-01,-1.852124089999999945e-01,-1.841150029999999993e-01,-1.826477049999999935e-01,-1.816735949999999933e-01,-1.800683570000000122e-01,-1.790796000000000054e-01,-1.780114839999999976e-01,-1.757080189999999931e-01,-1.731579629999999981e-01,-1.708252050000000077e-01,-1.683044429999999980e-01,-1.668725650000000005e-01,-1.652233919999999967e-01,-1.632836900000000091e-01,-1.629345729999999992e-01,-1.608129889999999895e-01,-1.606457540000000017e-01,-1.585095230000000133e-01,-1.569543479999999935e-01,-1.556250010000000128e-01,-1.535180660000000086e-01,-1.520715340000000082e-01,-1.508801270000000028e-01,-1.487585449999999920e-01,-1.482861319999999872e-01,-1.463171380000000132e-01,-1.458300770000000024e-01,-1.437231439999999971e-01,-1.434472659999999899e-01,-1.412817369999999906e-01,-1.398498479999999988e-01,-1.387170420000000126e-01,-1.373937909999999873e-01,-1.361083979999999916e-01,-1.350903210000000132e-01,-1.335583549999999897e-01,-1.328308009999999983e-01,-1.310876490000000005e-01,-1.302514559999999877e-01,-1.288134810000000074e-01,-1.276428099999999954e-01,-1.266332980000000052e-01,-1.252014019999999894e-01,-1.240393040000000030e-01,-1.216125490000000003e-01,-1.204858270000000037e-01,-1.192944269999999946e-01,-1.168823239999999958e-01,-1.153417929999999980e-01,-1.142736780000000035e-01,-1.122753830000000064e-01,-1.114038130000000043e-01,-1.095141470000000061e-01,-1.079589630000000050e-01,-1.068261759999999949e-01,-1.056554900000000047e-01,-1.041882229999999965e-01,-1.022192330000000066e-01,-1.020080309999999990e-01,-9.991576100000000571e-02,-9.837522799999999512e-02,-9.727780399999999550e-02,-9.472777200000000175e-02,-9.220704899999999926e-02,-9.078979500000000646e-02,-8.970702499999999580e-02,-8.758544899999999578e-02,-8.726561900000000260e-02,-8.526732099999999315e-02,-8.354488899999999718e-02,-8.262936099999999839e-02,-8.125606900000000021e-02,-8.009398700000000537e-02,-7.994139899999999632e-02,-7.880000500000000629e-02,-7.763792399999999705e-02,-7.734740399999999461e-02,-7.534910499999999955e-02,-7.492065400000000319e-02,-7.394650099999999782e-02,-7.263183600000000517e-02,-7.258786500000000141e-02,-7.034301799999999327e-02,-7.017577299999999685e-02,-6.802488499999999327e-02,-6.745850500000000194e-02,-6.770505100000000220e-02,-6.561279300000000259e-02,-6.544554700000000669e-02,-6.430414199999999469e-02,-6.286621100000000517e-02,-6.171014600000000044e-02,-6.041014599999999790e-02,-5.928339700000000156e-02,-5.813598600000000061e-02,-5.767822300000000069e-02,-5.597043799999999736e-02,-5.540406300000000339e-02,-5.512820599999999904e-02,-5.528079500000000063e-02,-5.549801399999999829e-02,-5.351437099999999808e-02,-5.294799800000000306e-02,-5.308592599999999856e-02,-5.293333800000000339e-02,-5.094969500000000318e-02,-5.047727099999999717e-02,-4.832638000000000211e-02,-4.763674300000000222e-02,-4.623413099999999776e-02,-4.574704500000000007e-02,-4.347288800000000120e-02,-4.344356500000000343e-02,-4.100215799999999688e-02,-4.043579099999999871e-02,-3.832888400000000056e-02,-3.816163499999999931e-02,-3.732538500000000259e-02,-3.614866800000000185e-02,-3.601074199999999836e-02,-3.581416700000000092e-02,-3.370726100000000225e-02,-3.343141100000000115e-02,-3.327882299999999904e-02,-3.126585500000000212e-02,-3.108394000000000088e-02,-2.986323700000000081e-02,-2.839601099999999878e-02,-2.850460800000000072e-02,-2.638304099999999944e-02,-2.484249800000000105e-02,-2.378904700000000066e-02,-2.266227499999999909e-02,-2.122438100000000050e-02,-2.145623500000000058e-02,-1.905882199999999957e-02,-1.863038700000000172e-02,-1.902949199999999855e-02,-1.750361200000000172e-02,-1.660274999999999945e-02,-1.675533699999999862e-02,-1.575181700000000129e-02,-1.392949500000000007e-02,-1.277338599999999942e-02,-1.141475999999999949e-02,-1.110958400000000047e-02,-9.416450999999999294e-03,-9.263861999999999444e-03,-7.875905000000000752e-03,-6.575946000000000048e-03,-6.793121000000000055e-03,-4.257793999999999641e-03,-4.075872000000000349e-03,-1.845721999999999944e-03,-1.663799000000000094e-03,-3.844259999999999951e-04,6.103519999999999866e-04,9.448629999999999963e-04,3.051757999999999901e-03,3.233681999999999876e-03,5.340575999999999657e-03,5.950928000000000294e-03,7.535479999999999783e-03,8.101827000000000681e-03,1.022338899999999939e-02,1.041998300000000072e-02,1.267946399999999967e-02,1.301397800000000070e-02,1.409676300000000000e-02,1.525878900000000003e-02,1.570188299999999981e-02,1.782344400000000079e-02,1.803471099999999841e-02,2.030885899999999855e-02,2.049078799999999936e-02,2.261234800000000086e-02,2.320803000000000102e-02,2.490116699999999836e-02,2.618055400000000171e-02,2.863663199999999867e-02,2.995124000000000050e-02,3.197889599999999971e-02,3.479003900000000177e-02,3.608409900000000142e-02,3.864875100000000202e-02,3.981076800000000332e-02,4.208491400000000104e-02,4.308847300000000213e-02,4.458500800000000236e-02,4.681513799999999920e-02,4.810920300000000316e-02,4.946782200000000157e-02,5.161872499999999725e-02,5.401611299999999755e-02,5.543342300000000250e-02,5.682138800000000045e-02,5.879035800000000089e-02,6.136967900000000337e-02,6.264907699999999746e-02,6.411626199999999332e-02,6.612925199999999948e-02,6.866455100000000422e-02,6.994395100000000420e-02,7.145515600000000578e-02,7.383786500000000252e-02,7.484143899999999572e-02,7.729752099999999404e-02,7.859743900000000505e-02,7.844485099999999600e-02,7.876470200000000588e-02,7.862679000000000196e-02,8.340988400000000358e-02,8.854500299999999713e-02,9.039073400000000036e-02,9.080447099999999772e-02,9.220711400000000668e-02,9.352170099999999875e-02,9.353637700000000388e-02,9.435802199999999973e-02,9.556404899999999814e-02,9.610101799999999639e-02,9.696669500000000552e-02,9.841918900000000414e-02,9.826660199999999457e-02,9.951665899999999343e-02,1.008312410000000020e-01,1.007226850000000062e-01,1.009985060000000018e-01,1.006933299999999976e-01,1.009985060000000018e-01,1.033020020000000039e-01,1.030261829999999934e-01,1.033020020000000039e-01,1.032726449999999963e-01,1.032873230000000003e-01,1.022984009999999971e-01,1.008605959999999968e-01,1.005994580000000027e-01,9.956649600000000433e-02,9.841918900000000414e-02,9.700185999999999531e-02,9.579583599999999532e-02,9.365960500000000688e-02,9.193709799999999488e-02,8.955441199999999990e-02,8.737414000000000291e-02,8.475078399999999568e-02,8.128530400000000267e-02,7.774641999999999664e-02,7.481788799999999906e-02,7.150499600000000122e-02,6.795143100000000658e-02,6.421013899999999941e-02,6.061252799999999885e-02,5.575907799999999664e-02,5.273668299999999948e-02,4.854340000000000044e-02,4.352268000000000109e-02,3.990461599999999692e-02,3.635104699999999744e-02,3.188194899999999971e-02,2.673800800000000061e-02,2.186987699999999937e-02,1.697237999999999872e-02,1.208956700000000072e-02,6.778356000000000138e-03,2.382673000000000083e-03,-2.553720000000000209e-04,-5.246723000000000012e-03,-9.868412000000000017e-03,-1.462800499999999948e-02,-1.964872299999999988e-02,-2.495993200000000065e-02,-2.938498100000000099e-02,-3.466682000000000097e-02,-3.719633499999999704e-02,-4.174460299999999818e-02,-4.479636199999999929e-02,-4.893092100000000222e-02,-5.195330900000000307e-02,-5.640772899999999673e-02,-6.115264000000000116e-02,-6.371726399999999568e-02,-6.862944899999999515e-02,-7.337436099999999906e-02,-7.612094399999999594e-02,-7.984752600000000200e-02,-8.199844300000000419e-02,-8.448390899999999593e-02,-8.717174599999999440e-02,-8.943119099999999322e-02,-9.098644399999999965e-02,-9.203987199999999480e-02,-9.419078999999999646e-02,-9.573135700000000303e-02,-9.736576199999999459e-02,-9.933471700000000293e-02,-9.934940500000000174e-02,-9.947261699999999929e-02,-1.006288600000000005e-01,-1.020812990000000003e-01,-1.016529119999999980e-01,-1.017761229999999961e-01,-1.022338869999999955e-01,-1.020519210000000038e-01,-1.000242110000000018e-01,-9.948730499999999810e-02,-9.934940600000000122e-02,-9.948730499999999810e-02,-9.959582399999999947e-02,-9.950199399999999639e-02,-9.921150900000000328e-02,-9.848363799999999835e-02,-9.704589800000000543e-02,-9.678479299999999397e-02,-9.718379600000000285e-02,-9.718379600000000285e-02,-9.704589800000000543e-02,-9.703120799999999380e-02,-9.478646200000000188e-02,-9.446659500000000043e-02,-9.463387500000000618e-02,-9.460449199999999836e-02,-9.239480399999999705e-02,-9.216308600000000517e-02,-9.114471600000000062e-02,-8.972167999999999810e-02,-8.953970799999999564e-02,-8.754137200000000618e-02,-8.709830100000000297e-02,-8.523786099999999810e-02,-8.491799199999999770e-02,-8.267325100000000315e-02,-8.239746100000000517e-02,-8.139377500000000154e-02,-7.995605499999999810e-02,-7.981815999999999911e-02,-7.751464800000000543e-02,-7.763784899999999489e-02,-7.611197000000000101e-02,-7.505854800000000271e-02,-7.504385399999999318e-02,-7.292231700000000039e-02,-7.246455400000000047e-02,-7.031362800000000302e-02,-6.904884099999999969e-02,-6.761113000000000539e-02,-6.811861700000000630e-02,-6.532231199999999349e-02,-6.530761699999999836e-02,-6.430391700000000210e-02,-6.300410300000000574e-02,-6.283682000000000156e-02,-6.056269699999999867e-02,-6.041010899999999656e-02,-6.041010899999999656e-02,-5.828857400000000272e-02,-5.799809499999999951e-02,-5.810659299999999805e-02,-5.813598600000000061e-02,-5.769292000000000170e-02,-5.798339799999999850e-02,-5.770761700000000272e-02,-5.780141600000000129e-02,-5.795400400000000340e-02,-5.597036100000000319e-02,-5.551259699999999686e-02,-5.442978300000000241e-02,-5.310058599999999823e-02,-5.296269599999999661e-02,-5.081176800000000021e-02,-4.939438100000000109e-02,-4.818837599999999805e-02,-4.608154300000000259e-02,-4.563847800000000315e-02,-4.477264599999999928e-02,-4.334965999999999819e-02,-4.313827499999999676e-02,-4.104614300000000021e-02,-4.074096700000000293e-02,-4.060307900000000025e-02,-4.069686699999999768e-02,-3.882171200000000127e-02,-3.814697300000000069e-02,-3.829956100000000280e-02,-3.845214799999999850e-02,-3.859003600000000117e-02,-3.840804600000000124e-02,-3.817637399999999903e-02,-3.828485999999999695e-02,-3.677368200000000198e-02,-3.587285600000000158e-02,-3.599604099999999945e-02,-3.573496999999999785e-02,-3.499230300000000238e-02,-3.315567800000000093e-02,-3.344615199999999983e-02,-3.218134300000000114e-02,-3.082275400000000082e-02,-3.099004400000000131e-02,-3.111322700000000024e-02,-3.099004500000000079e-02,-3.077864500000000031e-02,-2.870122599999999982e-02,-2.836664399999999989e-02,-2.856334199999999851e-02,-2.854863900000000065e-02,-2.870122699999999930e-02,-2.839605099999999854e-02,-2.868652299999999850e-02,-2.853393599999999933e-02,-2.854864000000000013e-02,-2.841075599999999882e-02,-2.853393599999999933e-02,-2.854864000000000013e-02,-2.868652299999999850e-02,-2.867181900000000117e-02,-2.853393599999999933e-02,-2.847511499999999876e-02,-2.681135299999999957e-02,-2.609252899999999972e-02,-2.584617599999999848e-02,-2.609252899999999972e-02,-2.606311700000000023e-02,-2.394159300000000060e-02,-2.406476800000000027e-02,-2.421735599999999891e-02,-2.391217899999999869e-02,-2.150018600000000099e-02,-2.136230500000000157e-02,-2.136230500000000157e-02,-2.107183600000000004e-02,-2.118030200000000154e-02,-1.921136700000000003e-02,-1.889148300000000058e-02,-1.847784200000000127e-02,-1.890619099999999927e-02,-1.908819399999999930e-02,-1.889148200000000111e-02,-1.647949199999999836e-02,-1.620373300000000141e-02,-1.655853800000000112e-02,-1.617431600000000108e-02,-1.660266300000000014e-02,-1.646478300000000020e-02,-1.635632199999999953e-02,-1.632690399999999972e-02,-1.635632299999999900e-02,-1.632690399999999972e-02,-1.635632399999999848e-02,-1.645007299999999908e-02,-1.646478200000000072e-02,-1.620373699999999931e-02,-1.647949199999999836e-02,-1.621844700000000042e-02,-1.646478200000000072e-02,-1.631219399999999861e-02,-1.632690399999999972e-02,-1.675524600000000142e-02,-1.609528400000000137e-02,-1.634161599999999978e-02,-1.621844999999999884e-02,-1.850726899999999980e-02,-1.879773399999999997e-02,-1.904406299999999996e-02,-1.905877400000000055e-02,-1.847784699999999863e-02,-1.879773499999999944e-02,-1.889147399999999838e-02,-1.853669700000000128e-02,-1.878302299999999939e-02,-1.878302299999999939e-02,-1.893561100000000150e-02,-1.764134300000000030e-02,-1.631219100000000019e-02,-1.661736700000000094e-02,-1.646477899999999883e-02,-1.632690399999999972e-02,-1.631219100000000019e-02,-1.672581199999999962e-02,-1.618903000000000009e-02,-1.628276199999999924e-02,-1.635633300000000068e-02,-1.632690399999999972e-02,-1.645006300000000088e-02,-1.643534799999999893e-02,-1.621846099999999999e-02,-1.646477699999999988e-02,-1.405280100000000018e-02,-1.387078299999999938e-02,-1.385606699999999969e-02,-1.402337000000000028e-02,-1.359503800000000026e-02,-1.385606600000000022e-02,-1.387078199999999990e-02,-1.403808599999999997e-02,-1.397922000000000053e-02,-1.171983499999999963e-02,-1.158196300000000067e-02,-1.142937500000000030e-02,-1.142937500000000030e-02,-1.046969600000000056e-02,-8.850098000000000686e-03,-9.002685999999999328e-03,-9.839212999999999432e-03,-1.129150400000000082e-02,-1.144409199999999946e-02,-1.155252600000000046e-02,-1.133565800000000019e-02,-1.135037700000000004e-02,-1.141465499999999925e-02,-1.158196099999999999e-02,-1.158196099999999999e-02,-1.116835400000000013e-02,-1.159667999999999984e-02,-1.116835400000000013e-02,-1.132094200000000050e-02,-1.116835499999999960e-02,-1.169038900000000068e-02,-1.171982799999999984e-02,-1.173454799999999916e-02,-1.185769599999999917e-02,-1.173454699999999969e-02,-1.173454699999999969e-02,-1.173454699999999969e-02,-9.037509000000000861e-03,-6.684426000000000256e-03,-6.684426000000000256e-03,-6.452854000000000055e-03,-6.576000000000000248e-03,-6.713867000000000099e-03,-6.699145999999999573e-03,-6.728589000000000098e-03,-6.300268999999999835e-03,-6.561278999999999723e-03,-6.699145000000000100e-03,-6.807566999999999612e-03,-6.561278999999999723e-03,-6.285548000000000177e-03,-5.281685999999999846e-03,-4.105150000000000118e-03,-3.967285000000000082e-03,-4.134595999999999931e-03,-4.395602999999999663e-03,-4.272460999999999967e-03,-4.119872999999999591e-03,-4.119872999999999591e-03,-4.090426000000000305e-03,-4.105148999999999777e-03,-4.119872999999999591e-03,-4.243013000000000340e-03,-4.149322000000000427e-03,-4.243011999999999999e-03,-2.840272000000000022e-03,-1.693190999999999924e-03,-1.388015999999999946e-03,-1.816329999999999898e-03,-1.634290999999999956e-03,3.493519999999999850e-04,5.019399999999999817e-04,6.398029999999999863e-04,3.081209000000000118e-03,3.081210000000000025e-03,1.939465000000000026e-03,7.776659999999999909e-04,7.776659999999999909e-04,7.334870000000000062e-04,9.155269999999999641e-04,7.482129999999999597e-04,9.155269999999999641e-04,8.071200000000000379e-04,8.860730000000000255e-04,6.103519999999999866e-04,8.860720000000000098e-04,7.629390000000000217e-04,3.640870000000000261e-04,9.302549999999999491e-04,3.037030000000000025e-03,3.095941999999999965e-03,3.204345999999999844e-03,8.566140000000000082e-04,7.629390000000000217e-04,8.860699999999999783e-04,2.013099999999999872e-03,3.327475999999999785e-03,3.480062999999999820e-03,3.037029000000000117e-03,2.928628999999999868e-03,3.233805000000000186e-03,3.051757999999999901e-03,3.095946999999999935e-03,3.603189000000000131e-03,3.342203000000000188e-03,3.066488000000000026e-03,2.790772999999999865e-03,3.356933999999999786e-03,2.943362000000000148e-03,3.066488999999999934e-03,3.037026999999999869e-03,3.189614999999999811e-03,2.913900999999999991e-03,3.189613999999999904e-03,3.204345999999999844e-03,3.219076999999999876e-03,2.928633999999999838e-03,2.913901999999999898e-03,3.189613999999999904e-03,3.233810000000000157e-03,3.342200999999999939e-03,3.356933999999999786e-03,3.219077999999999783e-03,3.342200999999999939e-03,3.219079000000000124e-03,3.189612999999999997e-03,2.928636999999999994e-03,3.066491000000000182e-03,2.928636999999999994e-03,3.110692999999999878e-03,3.342200000000000032e-03,3.081225999999999843e-03,2.958107000000000184e-03,4.223013000000000287e-03,5.827808999999999767e-03,5.507899000000000128e-03,5.754135999999999973e-03,5.645752000000000409e-03,5.645752000000000409e-03,5.645752000000000409e-03,5.798339999999999918e-03,5.507899999999999602e-03,5.783604000000000349e-03,5.522636000000000038e-03,5.798339999999999918e-03,5.783604000000000349e-03,5.370049000000000003e-03,5.645752000000000409e-03,5.507900999999999943e-03,5.768866999999999572e-03,5.631014999999999632e-03,5.660489000000000319e-03,5.645752000000000409e-03,5.768864999999999757e-03,5.616277000000000248e-03,5.675226999999999702e-03,5.768864999999999757e-03,5.645752000000000409e-03,5.891976000000000158e-03,5.783601999999999667e-03,5.754124999999999691e-03,5.645752000000000409e-03,5.645752000000000409e-03,5.798339999999999918e-03,5.493164000000000033e-03,5.783601000000000193e-03,5.675229999999999858e-03,5.507902999999999757e-03,5.384794000000000039e-03,5.950928000000000294e-03,5.783599999999999852e-03,5.384795000000000380e-03,4.503937000000000392e-03,3.160126000000000081e-03,3.219085999999999909e-03,3.204345999999999844e-03,3.356933999999999786e-03,3.081238999999999940e-03,3.204345999999999844e-03,3.066498999999999874e-03,3.494779999999999848e-03,3.342191999999999906e-03,3.066498999999999874e-03,3.081241000000000188e-03,3.327450000000000026e-03,3.189603999999999964e-03,2.958137999999999913e-03,5.064884999999999873e-03,5.522647999999999793e-03,5.798339999999999918e-03,6.743352000000000200e-03,8.362849000000000324e-03,8.101900999999999894e-03,7.964056000000000607e-03,8.195516999999999386e-03,9.243733000000000505e-03,1.052856400000000067e-02,1.054330799999999950e-02,1.151780999999999985e-02,1.296997100000000028e-02,1.281738299999999990e-02,1.295522699999999972e-02,1.284687099999999929e-02,1.284687200000000050e-02,1.296997100000000028e-02,1.310781400000000062e-02,1.310781400000000062e-02,1.280263799999999987e-02,1.251220699999999915e-02,1.123252299999999947e-02,1.065166199999999924e-02,1.081899499999999965e-02,1.036123100000000026e-02,1.068115199999999931e-02,1.036123100000000026e-02,8.377588000000000049e-03,7.964063000000000392e-03,8.057665000000000313e-03,8.101904999999999524e-03,8.072411999999999296e-03,7.919824000000000655e-03,8.239745999999999182e-03,8.239745999999999182e-03,7.949318000000000356e-03,8.362839000000000383e-03,8.087158000000000541e-03,7.949318000000000356e-03,8.072410000000000349e-03,8.072410000000000349e-03,8.087158000000000541e-03,8.072410000000000349e-03,8.210248999999999325e-03,8.101907000000000206e-03,8.087158000000000541e-03,9.366856999999999267e-03,1.054331300000000034e-02,1.095683000000000074e-02,1.063690500000000032e-02,1.051381499999999927e-02,1.052856400000000067e-02,1.036122700000000063e-02,1.094207900000000039e-02,1.040547600000000031e-02,1.052856400000000067e-02,8.530172000000000795e-03,7.978821000000000524e-03,8.239745999999999182e-03,7.978821999999999998e-03,8.072407000000000193e-03,8.087158000000000541e-03,8.210244000000000222e-03,7.964073000000000332e-03,8.072407000000000193e-03,8.116661000000000709e-03,8.087158000000000541e-03,8.210241999999999540e-03,7.949321999999999985e-03,7.934570000000000164e-03,8.101910000000000361e-03,8.101910999999999835e-03,8.072406000000000720e-03,7.964076000000000488e-03,8.101910999999999835e-03,8.116664000000000864e-03,8.377581000000000264e-03,8.116665000000000338e-03,8.101911999999999309e-03,1.011506099999999984e-02,1.054331799999999944e-02,1.039073000000000080e-02,1.162618800000000084e-02,1.298472500000000078e-02,1.269430300000000053e-02,1.211850499999999990e-02,1.042024000000000075e-02,1.080423099999999921e-02,1.068115199999999931e-02,1.037597699999999977e-02,1.049905400000000072e-02,8.362823000000000132e-03,8.180724000000000329e-03,7.964080999999999591e-03,8.254502000000000367e-03,8.239745999999999182e-03,7.949325999999999615e-03,8.087158000000000541e-03,7.235680999999999884e-03,5.630996000000000092e-03,5.783583000000000127e-03,5.783583000000000127e-03,5.645752000000000409e-03,5.630994999999999751e-03,5.660509000000000200e-03,5.630994999999999751e-03,5.586721999999999695e-03,3.647351999999999973e-03,3.051757999999999901e-03,2.913928000000000091e-03,1.801539000000000005e-03,9.007690000000000488e-04,6.251100000000000103e-04,7.481809999999999980e-04,7.776979999999999527e-04,6.398690000000000497e-04,9.007680000000000331e-04,9.155269999999999641e-04,1.009078999999999966e-03,-1.540637999999999990e-03,-1.250222000000000052e-03,-1.801536000000000066e-03,-1.373291000000000008e-03,-6.891399999999999783e-04,7.776989999999999684e-04,7.481789999999999665e-04,6.398719999999999885e-04,5.020450000000000086e-04,6.103519999999999866e-04,9.155269999999999641e-04,6.251120000000000418e-04,7.924609999999999467e-04,7.629390000000000217e-04,7.777009999999999999e-04,7.777009999999999999e-04,7.334159999999999725e-04,7.629390000000000217e-04,1.191178999999999892e-03,7.777009999999999999e-04,5.315740000000000439e-04,-2.559239999999999844e-04,-1.663704000000000007e-03,-1.895067000000000062e-03,-1.845817000000000031e-03,-1.816291999999999950e-03,-1.540642000000000053e-03,-1.968879000000000202e-03,-1.678466999999999893e-03,-1.648939999999999998e-03,-1.801527999999999940e-03,-1.678466999999999893e-03,-1.816291000000000043e-03,-1.525878999999999951e-03,-4.134709999999999991e-04,9.302919999999999896e-04,7.629390000000000217e-04,4.872930000000000252e-04,6.251159999999999963e-04,6.251159999999999963e-04,1.053349999999999989e-03,5.955860000000000537e-04,9.302930000000000053e-04,6.398820000000000376e-04,7.334079999999999549e-04,9.007620000000000470e-04,7.777049999999999545e-04,4.872960000000000182e-04,5.020619999999999510e-04,9.007610000000000313e-04,9.007610000000000313e-04,1.009048999999999927e-03,7.777059999999999702e-04,1.068114999999999907e-03,6.398859999999999921e-04,9.007600000000000155e-04,7.777069999999999860e-04,6.398859999999999921e-04,7.629390000000000217e-04,9.007600000000000155e-04,9.450630000000000011e-04,2.500477999999999989e-03,3.081294000000000047e-03,3.342164999999999806e-03,3.327397000000000167e-03,3.022220999999999849e-03,4.361073000000000033e-03,5.630982999999999995e-03,5.355345000000000071e-03,5.645752000000000409e-03,5.645752000000000409e-03,4.365970999999999741e-03,3.204345999999999844e-03,3.036988000000000014e-03,1.191163000000000074e-03,7.333990000000000301e-04,-1.388060999999999896e-03,-2.943480999999999962e-03,-4.257689999999999739e-03,-3.859009000000000050e-03,-6.177369000000000263e-03,-6.516967000000000246e-03,-4.533324000000000034e-03,-3.844240000000000070e-03,-4.075559000000000300e-03,-1.693237999999999905e-03,-5.512650000000000015e-04,1.904913999999999956e-03,4.316776999999999941e-03,7.688483000000000296e-03,1.023816100000000083e-02,1.423499100000000066e-02,1.670594300000000088e-02,1.911780399999999866e-02,2.032373499999999902e-02,2.116053899999999904e-02,2.290295700000000156e-02,2.288818399999999892e-02,2.288818399999999892e-02,2.288818399999999892e-02,2.317858600000000102e-02,2.288818399999999892e-02,2.275036999999999893e-02,2.275036999999999893e-02,2.259778200000000029e-02,2.287340900000000080e-02,2.259778200000000029e-02,2.301122200000000131e-02,2.273559600000000028e-02,2.282908399999999949e-02,2.058458999999999983e-02,2.004811499999999830e-02,1.931956099999999898e-02,1.799059600000000106e-02,1.658775300000000022e-02,1.527356499999999936e-02,1.327514599999999982e-02,1.171971500000000034e-02,1.049901200000000027e-02,8.515369000000000063e-03,6.822126000000000405e-03,5.921374000000000082e-03,4.351164999999999720e-03,3.356933999999999786e-03,2.121453000000000141e-03,6.251289999999999842e-04,6.103519999999999866e-04,8.859719999999999531e-04,5.807959999999999599e-04,-1.540656999999999964e-03,-1.540656999999999964e-03,-1.801499000000000026e-03,-1.265038000000000013e-03,-3.096092999999999849e-03,-4.272460999999999967e-03,-4.380712999999999621e-03,-3.903370000000000190e-03,-6.393911999999999859e-03,-6.300441000000000374e-03,-6.822116999999999938e-03,-6.684307999999999916e-03,-6.256104000000000179e-03,-4.257681000000000139e-03,-4.257681000000000139e-03,-4.272460999999999967e-03,-3.662109000000000197e-03,-1.693246999999999938e-03,-1.525878999999999951e-03,1.821489999999999936e-04,8.859659999999999671e-04,2.057546999999999848e-03,3.204345999999999844e-03,3.219127000000000013e-03,3.327370999999999975e-03,3.219127000000000013e-03,3.494740000000000086e-03,3.189564000000000201e-03,3.342152000000000144e-03,3.342152000000000144e-03,2.913952000000000035e-03,3.327369000000000160e-03,3.189562999999999860e-03,3.051757999999999901e-03,3.189562999999999860e-03,3.081322999999999961e-03,3.051757999999999901e-03,3.494737999999999838e-03,2.200118999999999946e-03,5.955679999999999872e-04,7.481560000000000380e-04,9.155269999999999641e-04,7.333720000000000386e-04,7.481550000000000223e-04,7.777240000000000368e-04,9.450959999999999786e-04,3.036973000000000103e-03,3.465167999999999807e-03,3.066543000000000133e-03,3.110897000000000055e-03,5.370146000000000121e-03,5.891786999999999892e-03,4.228105000000000231e-03,3.356933999999999786e-03,3.066543000000000133e-03,3.327361999999999941e-03,3.174773999999999999e-03,3.159987999999999859e-03,3.189560000000000138e-03,3.204345999999999844e-03,3.174773000000000091e-03,5.217560999999999900e-03,5.507950999999999646e-03,5.660539000000000022e-03,5.630964999999999929e-03,5.827914000000000011e-03,8.072371000000000060e-03,8.087158000000000541e-03,8.101946000000000495e-03,8.101946000000000495e-03,8.239745999999999182e-03,8.224957999999999228e-03,6.851666999999999653e-03,5.616175000000000160e-03,3.312568000000000110e-03,9.941719999999999811e-04,-1.417656999999999902e-03,-4.602514999999999731e-03,-9.746137999999999676e-03,-1.481111799999999985e-02,-2.097379200000000152e-02,-3.043424399999999919e-02,-3.996864299999999814e-02,-5.342596000000000150e-02,-6.810397999999999452e-02,-8.478043300000000226e-02,-1.028893389999999963e-01,-1.206385960000000007e-01,-1.363255710000000065e-01,-1.510822290000000123e-01,-1.647116070000000099e-01,-1.723262130000000059e-01,-1.774892989999999893e-01,-1.799011229999999961e-01,-1.770214190000000132e-01,-1.720794400000000002e-01,-1.625302389999999930e-01,-1.503870429999999980e-01,-1.325833009999999867e-01,-1.120477670000000064e-01,-8.649162300000000358e-02,-5.831189900000000037e-02,-2.697220399999999962e-02,8.044393000000000377e-03,4.568457199999999968e-02,8.926088699999999709e-02,1.366666950000000047e-01,1.866073259999999900e-01,2.366413729999999882e-01,2.880191229999999880e-01,3.370146410000000037e-01,3.862413659999999749e-01,4.336666229999999733e-01,4.799007639999999797e-01,5.244416440000000401e-01,5.682343789999999562e-01,6.147293129999999994e-01,6.589354269999999625e-01,7.004837269999999450e-01,7.441238740000000185e-01,7.858099680000000253e-01,8.275450840000000419e-01,8.679217040000000161e-01,9.049117970000000177e-01,9.370680949999999898e-01,9.595817610000000331e-01,9.713106989999999996e-01,9.686223889999999725e-01,9.515565910000000072e-01,9.216882010000000403e-01,8.808334770000000313e-01,8.313996110000000384e-01,7.747645189999999848e-01,7.146300789999999736e-01,6.525415900000000047e-01,5.916590080000000418e-01,5.303482560000000179e-01,4.727588050000000042e-01,4.163012720000000000e-01,3.603310989999999880e-01,3.057638129999999954e-01,2.536231360000000268e-01,2.043520339999999880e-01,1.556126879999999990e-01,1.098807049999999952e-01,6.571899900000000017e-02,2.535719200000000062e-02,-1.241061899999999947e-02,-4.697408299999999981e-02,-7.816581300000000065e-02,-1.060302060000000018e-01,-1.307198509999999980e-01,-1.541147939999999994e-01,-1.719231820000000077e-01,-1.877183269999999904e-01,-2.011802530000000033e-01,-2.114332439999999924e-01,-2.197515790000000024e-01,-2.254019150000000082e-01,-2.277351360000000047e-01,-2.290048219999999968e-01,-2.270211789999999896e-01,-2.254656979999999922e-01,-2.229650870000000062e-01,-2.195147689999999985e-01,-2.162216140000000064e-01,-2.122053509999999865e-01,-2.083758520000000003e-01,-2.060722309999999946e-01,-2.037686099999999889e-01,-2.008990429999999994e-01,-1.998605320000000074e-01,-1.977835109999999952e-01,-1.960014260000000064e-01,-1.951155039999999952e-01,-1.937274089999999893e-01,-1.923393150000000107e-01,-1.925363119999999872e-01,-1.923985270000000136e-01,-1.902622959999999974e-01,-1.900949040000000090e-01,-1.902178850000000032e-01,-1.878208889999999909e-01,-1.876683010000000096e-01,-1.852416990000000097e-01,-1.839617789999999919e-01,-1.826625100000000002e-01,-1.824803130000000051e-01,-1.806344530000000004e-01,-1.804670600000000125e-01,-1.804374489999999998e-01,-1.784538059999999926e-01,-1.776419150000000113e-01,-1.764701620000000137e-01,-1.752005100000000037e-01,-1.740731719999999982e-01,-1.727146860000000061e-01,-1.705932619999999955e-01,-1.705784559999999894e-01,-1.693133330000000103e-01,-1.678614860000000042e-01,-1.670245140000000128e-01,-1.658186170000000015e-01,-1.644157109999999922e-01,-1.629786739999999901e-01,-1.606454340000000036e-01,-1.583862299999999890e-01,-1.568159289999999928e-01,-1.558855939999999884e-01,-1.535034180000000026e-01,-1.520708950000000115e-01,-1.508798080000000041e-01,-1.487435769999999879e-01,-1.484680180000000072e-01,-1.471584629999999894e-01,-1.459036410000000006e-01,-1.460118029999999956e-01,-1.437526020000000071e-01,-1.435852049999999935e-01,-1.411437989999999865e-01,-1.409764020000000007e-01,-1.391157279999999941e-01,-1.372994820000000005e-01,-1.363691449999999972e-01,-1.338195799999999935e-01,-1.326922239999999975e-01,-1.314863310000000118e-01,-1.290893549999999890e-01,-1.276568220000000031e-01,-1.267412940000000043e-01,-1.240095229999999965e-01,-1.228821630000000026e-01,-1.214747719999999948e-01,-1.195844729999999967e-01,-1.178911940000000047e-01,-1.165327139999999956e-01,-1.145194479999999959e-01,-1.119995119999999955e-01,-1.104440089999999958e-01,-1.083225899999999964e-01,-1.067967110000000025e-01,-1.045227049999999935e-01,-1.040649409999999941e-01,-1.023568489999999997e-01,-1.020961120000000028e-01,-1.006487560000000059e-01,-9.945767799999999381e-02,-9.733626099999999337e-02,-9.686368400000000545e-02,-9.515558999999999823e-02,-9.349193599999999771e-02,-9.213345800000000141e-02,-9.091275499999999787e-02,-8.982982500000000203e-02,-8.943131799999999576e-02,-8.970686499999999675e-02,-8.743286100000000061e-02,-8.726545900000000355e-02,-8.728027300000000543e-02,-8.735878599999999383e-02,-8.511441299999999988e-02,-8.497664000000000606e-02,-8.480923599999999618e-02,-8.282559400000000238e-02,-8.252041699999999869e-02,-8.125526700000000602e-02,-7.983309900000000459e-02,-7.992642199999999697e-02,-7.766723600000000061e-02,-7.763760399999999895e-02,-7.624949599999999994e-02,-7.487620400000000176e-02,-7.292219499999999521e-02,-7.247924799999999612e-02,-7.046597100000000224e-02,-6.891045699999999441e-02,-6.771938900000000483e-02,-6.659200299999999684e-02,-6.544538699999999376e-02,-6.544538699999999376e-02,-6.402764199999999573e-02,-6.288102900000000495e-02,-6.288102900000000495e-02,-6.259067199999999997e-02,-6.173882099999999928e-02,-6.040998599999999885e-02,-5.928259500000000043e-02,-5.769304199999999994e-02,-5.656565000000000204e-02,-5.551235399999999987e-02,-5.336130299999999882e-02,-5.282504899999999892e-02,-5.185024299999999725e-02,-5.064435999999999938e-02,-5.050659200000000293e-02,-4.937919600000000020e-02,-4.837036100000000061e-02,-4.707555599999999757e-02,-4.566824099999999831e-02,-4.464896899999999669e-02,-4.318237300000000306e-02,-4.220756199999999708e-02,-4.060319999999999901e-02,-4.063284300000000182e-02,-4.074096700000000293e-02,-3.883580400000000155e-02,-3.829956100000000280e-02,-3.843732700000000030e-02,-3.715733499999999967e-02,-3.573521100000000283e-02,-3.569074400000000341e-02,-3.398263199999999873e-02,-3.326416000000000095e-02,-3.311157199999999884e-02,-3.112793000000000157e-02,-3.123604899999999837e-02,-2.880946499999999938e-02,-2.751464500000000077e-02,-2.623029400000000122e-02,-2.607770599999999911e-02,-2.484217899999999896e-02,-2.366594699999999968e-02,-2.365112299999999959e-02,-2.401994199999999899e-02,-2.136230500000000157e-02,-2.120971699999999946e-02,-2.134747999999999854e-02,-2.136230500000000157e-02,-2.133265499999999898e-02,-2.120971699999999946e-02,-2.122454199999999902e-02,-2.108677999999999941e-02,-2.136230500000000157e-02,-2.122454199999999902e-02,-2.022006100000000098e-02,-1.905866000000000157e-02,-1.893572400000000100e-02,-1.857124400000000064e-02,-1.686312400000000017e-02,-1.631207800000000069e-02,-1.419067400000000034e-02,-1.387067099999999935e-02,-1.187220200000000010e-02,-1.133598499999999981e-02,-1.016408000000000068e-02,-9.002685999999999328e-03,-8.879753000000000646e-03,-7.875260000000000246e-03,-6.438346999999999647e-03,-5.158333000000000189e-03,-4.227976999999999951e-03,-3.036930000000000185e-03,-1.678466999999999893e-03,-2.606899999999999994e-04,8.074249999999999613e-04,2.913999000000000016e-03,4.469535000000000174e-03,5.813168999999999975e-03,7.811641000000000244e-03,9.229420000000000332e-03,1.095666900000000048e-02,1.270928399999999951e-02,1.423516300000000033e-02,1.653881199999999996e-02,1.887212099999999865e-02,2.035350999999999827e-02,2.276525600000000107e-02,2.500958400000000137e-02,2.644219700000000062e-02,2.780065799999999893e-02,3.007464500000000054e-02,3.132501099999999983e-02,3.240795800000000060e-02,3.466711399999999887e-02,3.511004599999999892e-02,3.724627700000000124e-02,3.755145299999999853e-02,3.965802000000000216e-02,4.078546300000000097e-02,4.182391399999999676e-02,4.324170199999999992e-02,4.457049700000000059e-02,4.455566400000000177e-02,4.569794299999999782e-02,4.702673599999999954e-02,4.928588899999999939e-02,4.962073100000000125e-02,5.172729499999999953e-02,5.314508600000000110e-02,5.448871100000000217e-02,5.674786200000000308e-02,5.695978499999999889e-02,5.869758800000000193e-02,6.150775399999999782e-02,6.292554799999999782e-02,6.522920200000000002e-02,6.655798999999999743e-02,6.870905500000000499e-02,6.898456099999999980e-02,7.125854500000000646e-02,7.156372099999999681e-02,7.368511599999999495e-02,7.386737499999999901e-02,7.377412899999999385e-02,7.614135700000000673e-02,7.632361699999999638e-02,7.804659199999999797e-02,7.876502400000000292e-02,8.103900599999999677e-02,8.106867900000000460e-02,8.345073999999999548e-02,8.366267400000000631e-02,8.589214500000000307e-02,8.590698200000000673e-02,8.576923200000000080e-02,8.707895899999999745e-02,8.863872700000000049e-02,8.834838899999999939e-02,8.831871299999999314e-02,8.837806500000000565e-02,8.853065300000000082e-02,8.836322700000000252e-02,9.066688400000000314e-02,9.106529400000000496e-02,9.080463399999999519e-02,9.095722200000000424e-02,9.078979500000000646e-02,9.091270499999999644e-02,8.880615199999999931e-02,8.851581599999999717e-02,8.679283100000000084e-02,8.598537200000000436e-02,8.378559200000000595e-02,8.358848400000000456e-02,8.139289299999999394e-02,7.890278000000000569e-02,7.760787500000000672e-02,7.476806599999999414e-02,7.271022100000000543e-02,7.028365400000000096e-02,6.761545500000000486e-02,6.445563099999999934e-02,6.067061599999999666e-02,5.801725499999999675e-02,5.346929999999999739e-02,5.043238299999999730e-02,4.599249200000000287e-02,4.335397099999999809e-02,3.894376299999999930e-02,3.465645900000000057e-02,3.148179699999999887e-02,2.685963099999999840e-02,2.203618800000000169e-02,1.912217500000000167e-02,1.426904699999999998e-02,9.661723000000000533e-03,5.891554999999999709e-03,2.199758000000000008e-03,-1.462352000000000096e-03,-5.154149999999999704e-03,-7.748144999999999685e-03,-1.234062699999999985e-02,-1.505752200000000027e-02,-1.934482800000000141e-02,-2.265723000000000042e-02,-2.708227900000000077e-02,-2.969111899999999846e-02,-3.304805300000000085e-02,-3.718277200000000282e-02,-4.058837900000000082e-02,-4.421666199999999686e-02,-4.694840000000000124e-02,-5.041338599999999753e-02,-5.282510199999999878e-02,-5.625626499999999974e-02,-5.897315599999999880e-02,-6.155230400000000213e-02,-6.390050799999999476e-02,-6.747353999999999852e-02,-6.930459499999999662e-02,-7.147051999999999572e-02,-7.255348200000000247e-02,-7.493550100000000158e-02,-7.511778400000000688e-02,-7.697853300000000176e-02,-7.755919099999999955e-02,-7.951313899999999657e-02,-8.010864299999999327e-02,-8.210713299999999881e-02,-8.244200499999999876e-02,-8.209228500000000095e-02,-8.225972099999999398e-02,-8.255004900000000034e-02,-8.223002399999999878e-02,-8.253520000000000301e-02,-8.225972199999999346e-02,-8.236776299999999662e-02,-8.238261199999999396e-02,-8.239746100000000517e-02,-8.242715999999999932e-02,-8.210713499999999776e-02,-8.213683400000000578e-02,-8.128479600000000638e-02,-7.997090499999999491e-02,-7.994120500000000129e-02,-7.968057900000000138e-02,-7.969542999999999766e-02,-7.997090499999999491e-02,-7.983316799999999602e-02,-7.969543099999999713e-02,-7.991150199999999537e-02,-7.893656899999999810e-02,-7.763753399999999416e-02,-7.723917499999999325e-02,-7.748494499999999952e-02,-7.533386300000000091e-02,-7.505839000000000261e-02,-7.521097799999999778e-02,-7.263183600000000517e-02,-7.250895300000000099e-02,-7.275471899999999548e-02,-7.035787000000000291e-02,-6.991495899999999875e-02,-7.005269499999999816e-02,-7.000813599999999859e-02,-6.788675800000000538e-02,-6.787190499999999627e-02,-6.745870099999999592e-02,-6.747355500000000450e-02,-6.662149300000000385e-02,-6.546020499999999354e-02,-6.503214899999999743e-02,-6.442584499999999548e-02,-6.298908999999999758e-02,-6.298908999999999758e-02,-6.160094399999999776e-02,-6.039509500000000281e-02,-6.030192699999999822e-02,-6.040994999999999698e-02,-5.912982600000000338e-02,-5.798339799999999850e-02,-5.810627499999999890e-02,-5.810627499999999890e-02,-5.567972399999999988e-02,-5.549742500000000300e-02,-5.354349399999999704e-02,-5.291828600000000188e-02,-5.094949900000000226e-02,-4.940876400000000085e-02,-4.835550500000000002e-02,-4.818805999999999784e-02,-4.681476899999999913e-02,-4.577636699999999836e-02,-4.563863600000000326e-02,-4.588438300000000081e-02,-4.350240600000000041e-02,-4.316751499999999658e-02,-4.319723100000000260e-02,-4.231542800000000215e-02,-4.086383899999999902e-02,-4.086383799999999955e-02,-4.103128400000000120e-02,-4.101642600000000166e-02,-4.087869599999999909e-02,-4.074096700000000293e-02,-4.061809699999999884e-02,-4.072610799999999698e-02,-4.077068500000000095e-02,-4.074096700000000293e-02,-4.087869499999999962e-02,-4.084897600000000212e-02,-4.055865899999999691e-02,-3.872760399999999881e-02,-3.857501599999999670e-02,-3.829956100000000280e-02,-3.842242800000000152e-02,-3.631591800000000259e-02,-3.627133600000000124e-02,-3.602560300000000326e-02,-3.572042699999999904e-02,-3.608902499999999680e-02,-3.372192400000000034e-02,-3.355447500000000027e-02,-3.343161000000000049e-02,-3.358419800000000260e-02,-3.241204999999999781e-02,-3.097534199999999946e-02,-3.097534199999999946e-02,-3.111306800000000067e-02,-3.227035699999999951e-02,-3.341674800000000306e-02,-3.366247299999999831e-02,-3.096047899999999908e-02,-3.085248000000000157e-02,-3.097534199999999946e-02,-3.109820300000000134e-02,-3.099020499999999984e-02,-3.109820300000000134e-02,-3.236349599999999854e-02,-3.341674800000000306e-02,-3.340188399999999974e-02,-3.353960799999999853e-02,-3.369219500000000117e-02,-3.317102999999999718e-02,-3.341674800000000306e-02,-3.344647700000000223e-02,-3.315616700000000028e-02,-3.218117999999999673e-02,-3.114279500000000089e-02,-3.096047700000000014e-02,-3.062557000000000126e-02,-2.856366700000000092e-02,-2.825849100000000017e-02,-2.862705999999999931e-02,-2.653542700000000032e-02,-2.609252899999999972e-02,-2.623025099999999957e-02,-2.621538400000000130e-02,-2.613712899999999853e-02,-2.882424499999999834e-02,-2.839621399999999948e-02,-2.868652299999999850e-02,-2.754407299999999878e-02,-2.593994100000000108e-02,-2.621538199999999888e-02,-2.591020600000000160e-02,-2.420200399999999918e-02,-2.349853500000000095e-02,-2.362138700000000063e-02,-2.380371100000000170e-02,-2.366599100000000080e-02,-2.351340400000000164e-02,-2.407915000000000055e-02,-2.351340400000000164e-02,-2.395629900000000034e-02,-2.377397300000000033e-02,-2.383344899999999961e-02,-2.360651500000000153e-02,-2.148515399999999936e-02,-2.150002300000000005e-02,-2.120971699999999946e-02,-2.123945600000000031e-02,-2.123945699999999978e-02,-2.094915099999999919e-02,-2.134743399999999847e-02,-2.120971699999999946e-02,-2.122458699999999962e-02,-2.107200000000000045e-02,-2.107200000000000045e-02,-2.119484599999999982e-02,-2.235218699999999906e-02,-2.349853500000000095e-02,-2.380371100000000170e-02,-2.368086599999999833e-02,-2.365112299999999959e-02,-2.366599499999999870e-02,-2.392655499999999866e-02,-2.351340700000000006e-02,-2.360650599999999932e-02,-2.162286299999999911e-02,-2.120971699999999946e-02,-2.137717700000000068e-02,-2.008211000000000024e-02,-1.890602499999999991e-02,-1.918145500000000003e-02,-1.889115200000000133e-02,-1.892089799999999850e-02,-1.873856399999999922e-02,-1.879805799999999943e-02,-1.847800900000000010e-02,-1.876831099999999933e-02,-1.873856200000000027e-02,-1.879805899999999891e-02,-2.119484199999999846e-02,-2.150001799999999921e-02,-2.148514300000000168e-02,-2.137717999999999910e-02,-2.108687899999999935e-02,-2.110175400000000034e-02,-2.148514199999999874e-02,-1.997413799999999892e-02,-1.890602300000000097e-02,-1.901398400000000113e-02,-1.661720400000000000e-02,-1.605147999999999991e-02,-1.634178000000000019e-02,-1.635665700000000014e-02,-1.605148099999999939e-02,-1.477127200000000022e-02,-1.431350800000000083e-02,-1.502799699999999954e-02,-1.632690399999999972e-02,-1.628227299999999989e-02,-1.419067400000000034e-02,-1.374778800000000037e-02,-1.426887400000000083e-02,-1.416091799999999977e-02,-1.431350600000000015e-02,-1.387062000000000017e-02,-1.391525400000000016e-02,-1.402320800000000055e-02,-1.387062000000000017e-02,-1.490517499999999967e-02,-1.603660700000000133e-02,-1.655768599999999854e-02,-1.405296500000000059e-02,-1.373290999999999921e-02,-1.390037700000000022e-02,-1.376266899999999994e-02,-1.403808599999999997e-02,-1.387061799999999949e-02,-1.374778999999999932e-02,-1.371803000000000085e-02,-1.187209499999999918e-02,-1.156691900000000016e-02,-1.176414800000000031e-02,-1.361008300000000025e-02,-1.391525899999999927e-02,-1.390037899999999917e-02,-1.387061700000000002e-02,-1.376267200000000010e-02,-1.400832299999999961e-02,-1.400832299999999961e-02,-1.390038000000000037e-02,-1.417579199999999956e-02,-1.402320399999999918e-02,-1.356543999999999979e-02,-1.161156200000000062e-02,-1.118356300000000053e-02,-1.139944499999999937e-02,-9.583272000000000318e-03,-8.972920000000000548e-03,-9.140390999999999447e-03,-9.278095000000000092e-03,-8.864980999999999209e-03,-9.155273000000000230e-03,-8.195096000000000672e-03,-6.684100000000000111e-03,-6.698983000000000368e-03,-6.546394999999999992e-03,-6.792035000000000086e-03,-4.257577000000000236e-03,-3.967285000000000082e-03,-4.257577000000000236e-03,-5.675521000000000212e-03,-6.698982000000000027e-03,-6.438461000000000357e-03,-6.270989000000000251e-03,-6.408691000000000214e-03,-4.395277999999999859e-03,-4.395277999999999859e-03,-4.119872999999999591e-03,-4.090101999999999974e-03,-4.134759000000000004e-03,-4.119872999999999591e-03,-4.119872999999999591e-03,-5.385235000000000369e-03,-6.531506000000000291e-03,-6.270989999999999724e-03,-6.669206999999999913e-03,-4.685563999999999701e-03,-4.119872999999999591e-03,-4.119872999999999591e-03,-3.829584999999999934e-03,-3.829584999999999934e-03,-2.824731999999999937e-03,-1.525878999999999951e-03,-1.678466999999999893e-03,-1.741726999999999989e-03,5.024279999999999675e-04,6.550160000000000184e-04,7.480510000000000111e-04,9.155269999999999641e-04,4.875410000000000269e-04,7.480510000000000111e-04,6.401300000000000393e-04,7.629390000000000217e-04,7.629390000000000217e-04,7.480499999999999953e-04,7.480499999999999953e-04,7.629390000000000217e-04,-3.349560000000000233e-04,-1.388181000000000050e-03,-1.540768999999999993e-03,-1.953861999999999786e-03,-1.831055000000000052e-03,-1.388181999999999958e-03,-1.693358000000000059e-03,-1.693358000000000059e-03,-1.525878999999999951e-03,-1.678466999999999893e-03,-1.403074000000000031e-03,-1.678466999999999893e-03,-1.816162999999999979e-03,-1.648682999999999963e-03,-1.525878999999999951e-03,-1.648682999999999963e-03,-1.295163999999999907e-03,-1.540771000000000024e-03,-1.845946999999999909e-03,-1.618896000000000094e-03,4.875489999999999902e-04,1.176023999999999906e-03,6.401379999999999484e-04,1.038328999999999945e-03,7.480460000000000408e-04,5.024440000000000026e-04,7.629390000000000217e-04,-5.173390000000000150e-04,-1.540773000000000056e-03,-1.678466999999999893e-03,-1.496090999999999957e-03,-1.801265999999999935e-03,-1.801265999999999935e-03,-1.373291000000000008e-03,-1.678466999999999893e-03,-1.555668999999999975e-03,-1.678466999999999893e-03,-1.693361999999999905e-03,-1.555670000000000100e-03,-1.723153000000000054e-03,-1.693361999999999905e-03,-1.693363000000000030e-03,-1.663570999999999973e-03,-1.968746999999999858e-03,-1.540775000000000087e-03,-1.633778000000000010e-03,-1.816158000000000008e-03,-1.693363000000000030e-03,-1.816158000000000008e-03,-6.586609999999999470e-04,5.954550000000000511e-04,8.857329999999999847e-04,7.629390000000000217e-04,6.550440000000000255e-04,9.006300000000000286e-04,4.577639999999999899e-04,4.726619999999999953e-04,8.857309999999999532e-04,6.103519999999999866e-04,4.428650000000000230e-04,-1.510980000000000092e-03,-1.816155999999999977e-03,-1.540778000000000026e-03,-1.786358000000000043e-03,-3.066656999999999977e-03,-4.075175000000000325e-03,-4.227762999999999834e-03,-4.149672000000000083e-03,-4.011983999999999689e-03,-6.148215000000000277e-03,-6.546378999999999740e-03,-6.546378999999999740e-03,-6.669167000000000151e-03,-6.576180000000000046e-03,-6.698967000000000116e-03,-6.713867000000000099e-03,-6.453394000000000318e-03,-6.713867000000000099e-03,-6.561278999999999723e-03,-6.501673999999999821e-03,-4.547833999999999731e-03,-4.272460999999999967e-03,-3.967285000000000082e-03,-3.967285000000000082e-03,-3.982186999999999880e-03,-5.429988999999999649e-03,-6.423594000000000352e-03,-7.811786999999999724e-03,-9.032491000000000131e-03,-1.130640699999999922e-02,-1.130640699999999922e-02,-1.144409199999999946e-02,-1.139938300000000078e-02,-9.278055000000000330e-03,-7.874957000000000137e-03,-6.698963999999999960e-03,-6.698963999999999960e-03,-6.713867000000000099e-03,-6.475403999999999709e-03,7.808243999999999775e-03,1.183869300000000083e-02,1.530350200000000008e-02,1.910329499999999930e-02,2.143682800000000152e-02,2.275050099999999936e-02,2.279521600000000009e-02,2.490163600000000130e-02,2.503931900000000085e-02,2.520681300000000152e-02,2.532958999999999905e-02,2.517700200000000041e-02,2.545236600000000057e-02,2.532958999999999905e-02,2.559004700000000118e-02,2.485692000000000110e-02,2.534449600000000108e-02,2.528487000000000096e-02,2.317845300000000164e-02,2.246023399999999906e-02,2.258300800000000164e-02,2.159294499999999881e-02,2.029418900000000067e-02,2.026437500000000114e-02,1.802027900000000016e-02,1.771510299999999941e-02,1.701530500000000140e-02,1.551924099999999959e-02,1.403808599999999997e-02,1.298487899999999952e-02,1.292524599999999961e-02,1.094160299999999940e-02,9.676172999999999719e-03,8.042432000000000400e-03,5.630842999999999959e-03,5.738703000000000380e-03,3.464794000000000207e-03,3.007029999999999946e-03,1.053206000000000107e-03,7.480300000000000057e-04,7.629390000000000217e-04,8.707969999999999773e-04,-5.174039999999999542e-04,-1.555699000000000014e-03,-2.943901000000000070e-03,-4.026926999999999590e-03,-6.256104000000000179e-03,-7.566271999999999755e-03,-8.894831000000000612e-03,-1.130641500000000021e-02,-1.148882600000000059e-02,-1.331988100000000043e-02,-1.373290999999999921e-02,-1.388549799999999959e-02,-1.416085000000000087e-02,-1.376273400000000043e-02,-1.385567400000000012e-02,-1.393023499999999915e-02,-1.387058600000000072e-02,-1.275773300000000027e-02,-1.156685399999999968e-02,-1.171944200000000005e-02,-1.130641699999999916e-02,-1.161159299999999991e-02,-1.142917899999999938e-02,-1.142917799999999991e-02,-1.129150400000000082e-02,-1.113891600000000044e-02,-1.028649300000000072e-02,-9.002685999999999328e-03,-8.850098000000000686e-03,-8.909755000000000105e-03,-9.002685999999999328e-03,-8.987771000000000302e-03,-8.987771000000000302e-03,-8.712424999999999337e-03,-9.002685999999999328e-03,-8.987770000000000828e-03,-9.155273000000000230e-03,-9.002685999999999328e-03,-9.155273000000000230e-03,-7.859991999999999673e-03,-6.698950999999999864e-03,-6.698950999999999864e-03,-6.546363000000000355e-03,-6.684034999999999629e-03,-6.285935999999999781e-03,-6.561278999999999723e-03,-6.546363000000000355e-03,-6.408691000000000214e-03,-6.561278999999999723e-03,-6.698950000000000390e-03,-6.851537999999999899e-03,-6.698950000000000390e-03,-6.546362000000000014e-03,-6.438527000000000312e-03,-6.591114999999999821e-03,-6.546360999999999673e-03,-6.546360999999999673e-03,-5.418573000000000313e-03,-4.104955000000000409e-03,-3.844534000000000146e-03,-4.242623000000000054e-03,-3.844535000000000053e-03,-4.119872999999999591e-03,-3.844535999999999960e-03,-3.267417999999999798e-03,-1.678466999999999893e-03,-1.540797999999999907e-03,-3.799778000000000183e-03,-4.104952999999999727e-03,-3.982204999999999946e-03,-6.300863999999999771e-03,-7.841663999999999926e-03,-1.028307000000000006e-02,-1.264649200000000050e-02,-1.754422699999999904e-02,-2.222968999999999987e-02,-2.811755700000000135e-02,-3.574695399999999745e-02,-4.648779299999999948e-02,-5.835643499999999817e-02,-7.424050100000000041e-02,-9.123744699999999930e-02,-1.082825300000000018e-01,-1.256775529999999974e-01,-1.416395970000000060e-01,-1.547024690000000091e-01,-1.649889139999999865e-01,-1.735968900000000037e-01,-1.754462290000000091e-01,-1.755540479999999903e-01,-1.705816960000000049e-01,-1.623602279999999953e-01,-1.502610119999999994e-01,-1.347600909999999985e-01,-1.142237680000000033e-01,-9.092593699999999834e-02,-6.440883499999999762e-02,-3.526453999999999700e-02,-2.383516000000000020e-03,3.210135499999999809e-02,7.044235399999999869e-02,1.141272740000000008e-01,1.593977729999999926e-01,2.079356589999999949e-01,2.569163830000000259e-01,3.057295939999999934e-01,3.545726559999999861e-01,4.035384539999999909e-01,4.500777719999999871e-01,4.953068319999999747e-01,5.381392619999999516e-01,5.811690569999999889e-01,6.226431209999999661e-01,6.647275360000000077e-01,7.059710550000000140e-01,7.462094879999999764e-01,7.854096590000000377e-01,8.230540960000000128e-01,8.599206659999999447e-01,8.932180050000000371e-01,9.228830860000000191e-01,9.472855409999999532e-01,9.629009160000000511e-01,9.668449690000000540e-01,9.567658559999999701e-01,9.353952340000000198e-01,8.997559849999999804e-01,8.564724089999999901e-01,8.052210979999999685e-01,7.480487129999999762e-01,6.869538280000000441e-01,6.237824260000000010e-01,5.592078759999999926e-01,4.954709099999999866e-01,4.341454929999999934e-01,3.744653909999999808e-01,3.179299190000000053e-01,2.638839330000000150e-01,2.114832660000000031e-01,1.601059250000000100e-01,1.107271580000000061e-01,6.530074700000000620e-02,2.163073899999999952e-02,-2.112702400000000119e-02,-5.932207800000000031e-02,-9.490820599999999496e-02,-1.267841510000000116e-01,-1.554739579999999954e-01,-1.800107509999999966e-01,-2.011308840000000098e-01,-2.196271579999999890e-01,-2.342755990000000010e-01,-2.468806699999999965e-01,-2.567092930000000051e-01,-2.639887169999999839e-01,-2.690721810000000214e-01,-2.719862840000000226e-01,-2.730875260000000249e-01,-2.710740180000000277e-01,-2.682495120000000233e-01,-2.647731130000000044e-01,-2.599201660000000080e-01,-2.561652019999999808e-01,-2.526887999999999912e-01,-2.479436399999999929e-01,-2.429231719999999928e-01,-2.387701809999999980e-01,-2.354911650000000023e-01,-2.317362030000000017e-01,-2.291720770000000018e-01,-2.257703400000000138e-01,-2.230386920000000106e-01,-2.205823510000000098e-01,-2.181409440000000033e-01,-2.169501100000000016e-01,-2.148138800000000126e-01,-2.144937680000000013e-01,-2.124951900000000005e-01,-2.108465939999999983e-01,-2.096109539999999882e-01,-2.073669429999999980e-01,-2.062092120000000028e-01,-2.048807280000000119e-01,-2.024393220000000049e-01,-2.023016699999999890e-01,-2.000277880000000119e-01,-1.987622739999999888e-01,-1.974337939999999958e-01,-1.961384049999999879e-01,-1.951300380000000056e-01,-1.934665080000000092e-01,-1.925509800000000105e-01,-1.903699369999999891e-01,-1.889966449999999909e-01,-1.866331370000000045e-01,-1.836560680000000056e-01,-1.813672490000000082e-01,-1.789557190000000131e-01,-1.766370230000000041e-01,-1.752786699999999975e-01,-1.731424390000000091e-01,-1.705633840000000123e-01,-1.683823359999999936e-01,-1.668415169999999947e-01,-1.644449279999999902e-01,-1.634995210000000088e-01,-1.610879930000000126e-01,-1.593796470000000132e-01,-1.580661150000000070e-01,-1.560525919999999900e-01,-1.536410659999999928e-01,-1.522378940000000125e-01,-1.509243640000000053e-01,-1.493686039999999882e-01,-1.485608419999999985e-01,-1.464544929999999912e-01,-1.446383790000000114e-01,-1.436929690000000037e-01,-1.423196780000000050e-01,-1.412665039999999872e-01,-1.388250970000000084e-01,-1.371466299999999916e-01,-1.359408689999999920e-01,-1.339572260000000126e-01,-1.323865200000000075e-01,-1.310729979999999961e-01,-1.289517099999999972e-01,-1.278088820000000125e-01,-1.252148869999999969e-01,-1.238415949999999988e-01,-1.218430090000000021e-01,-1.192789010000000066e-01,-1.171426700000000043e-01,-1.151590269999999971e-01,-1.140909110000000032e-01,-1.121371560000000017e-01,-1.105365569999999936e-01,-1.092529299999999981e-01,-1.079276170000000035e-01,-1.069491669999999978e-01,-1.053933989999999987e-01,-1.040798859999999965e-01,-1.046454029999999980e-01,-1.032272770000000062e-01,-1.019287110000000052e-01,-1.020514079999999962e-01,-9.976258999999999821e-02,-9.961000100000000357e-02,-9.722837800000000419e-02,-9.687836499999999407e-02,-9.487977599999999900e-02,-9.373692999999999609e-02,-9.230072799999999855e-02,-9.073000900000000035e-02,-8.959898500000000598e-02,-8.833344199999999813e-02,-8.686734999999999596e-02,-8.725037900000000290e-02,-8.540437700000000354e-02,-8.491671900000000162e-02,-8.255004900000000034e-02,-8.220002999999999338e-02,-8.023133500000000085e-02,-7.949829099999999871e-02,-7.778992799999999430e-02,-7.737700899999999660e-02,-7.626404900000000042e-02,-7.507324199999999836e-02,-7.365510499999999849e-02,-7.244935099999999517e-02,-7.034301799999999327e-02,-7.032806900000000694e-02,-6.904756900000000308e-02,-6.773407400000000522e-02,-6.659121199999999685e-02,-6.543030599999999364e-02,-6.553804400000000363e-02,-6.341676300000000099e-02,-6.285126100000000549e-02,-6.283631100000000580e-02,-6.071503000000000316e-02,-6.028716700000000261e-02,-6.011962900000000082e-02,-5.838135900000000073e-02,-5.766327200000000153e-02,-5.537445299999999709e-02,-5.541930700000000098e-02,-5.436921799999999694e-02,-5.281036199999999958e-02,-5.252013800000000093e-02,-5.093445199999999812e-02,-5.052154400000000156e-02,-4.939361999999999919e-02,-4.821777299999999850e-02,-4.707489699999999749e-02,-4.573151000000000299e-02,-4.353240700000000213e-02,-4.219208199999999881e-02,-4.092346000000000178e-02,-3.972076799999999658e-02,-3.843719500000000039e-02,-3.831451400000000090e-02,-3.842224200000000228e-02,-3.625610399999999733e-02,-3.585815400000000319e-02,-3.602569600000000288e-02,-3.582824600000000109e-02,-3.473022199999999809e-02,-3.356933599999999823e-02,-3.355438100000000118e-02,-3.355438100000000118e-02,-3.341674800000000306e-02,-3.367705900000000224e-02,-3.155578299999999697e-02,-3.111297500000000105e-02,-3.111297400000000157e-02,-3.012267000000000070e-02,-2.882415600000000008e-02,-2.856384699999999985e-02,-2.839630400000000068e-02,-2.607757299999999973e-02,-2.624511699999999836e-02,-2.606261699999999973e-02,-2.412384299999999898e-02,-2.349853500000000095e-02,-2.162261000000000044e-02,-2.119475999999999999e-02,-1.902861499999999872e-02,-1.761045199999999866e-02,-1.657225099999999965e-02,-1.516904399999999958e-02,-1.391541299999999974e-02,-1.368803700000000012e-02,-1.188689799999999991e-02,-1.132142000000000044e-02,-1.156676300000000074e-02,-1.156676300000000074e-02,-9.292902999999999927e-03,-9.155273000000000230e-03,-9.125355999999999398e-03,-8.559881000000000087e-03,-6.698907999999999946e-03,-6.531361000000000284e-03,-5.526076999999999899e-03,-4.089953999999999812e-03,-3.129547999999999792e-03,-1.618627999999999994e-03,4.876840000000000016e-04,9.304870000000000241e-04,1.905856000000000043e-03,3.464640000000000167e-03,3.356933999999999786e-03,5.493164000000000033e-03,5.783378999999999950e-03,5.478203000000000066e-03,5.783378999999999950e-03,5.660713000000000376e-03,7.934570000000000164e-03,7.949532000000000473e-03,8.209822999999999774e-03,9.245043999999999138e-03,1.069611399999999962e-02,1.193177999999999947e-02,1.281738299999999990e-02,1.440311099999999969e-02,1.554900199999999927e-02,1.650941699999999845e-02,1.799040799999999940e-02,1.789767199999999989e-02,2.014160200000000150e-02,2.129949600000000109e-02,2.291810999999999848e-02,2.505434100000000081e-02,2.630497199999999938e-02,2.889896600000000162e-02,3.022736599999999857e-02,3.237856100000000015e-02,3.494262699999999694e-02,3.623815200000000264e-02,3.756654999999999717e-02,3.942753400000000019e-02,4.081579099999999710e-02,4.215915299999999782e-02,4.414279599999999804e-02,4.583622799999999969e-02,4.690434400000000059e-02,4.931582000000000326e-02,5.157470699999999741e-02,5.287023899999999943e-02,5.422856499999999941e-02,5.645751999999999715e-02,5.778298600000000146e-02,5.892885900000000010e-02,6.152285300000000234e-02,6.169040800000000213e-02,6.364411700000000005e-02,6.423950200000000388e-02,6.623811200000000177e-02,6.651335299999999728e-02,6.678859400000000668e-02,6.642063500000000564e-02,6.767127400000000348e-02,6.910734699999999953e-02,6.913728199999999435e-02,7.113589300000000559e-02,7.253912099999999807e-02,7.374485599999999752e-02,7.498052800000000462e-02,7.630891400000000546e-02,7.731425399999999892e-02,7.876528900000000222e-02,7.875032099999999813e-02,7.873535199999999457e-02,7.849005300000000407e-02,8.113184900000000588e-02,8.145199399999999978e-02,8.132934599999999681e-02,8.117675800000000164e-02,8.113184700000000693e-02,7.885799899999999807e-02,7.887296900000000111e-02,7.773000100000000689e-02,7.653923799999999555e-02,7.411280200000000540e-02,7.167139599999999833e-02,6.912231400000000414e-02,6.770410999999999790e-02,6.511011499999999619e-02,6.266870800000000352e-02,6.186085300000000037e-02,5.915918600000000249e-02,5.690031100000000203e-02,5.534448799999999724e-02,5.316334000000000337e-02,5.046167499999999750e-02,4.840316900000000283e-02,4.493856400000000029e-02,4.124650900000000064e-02,3.909530399999999739e-02,3.637866700000000342e-02,3.303670599999999902e-02,2.920703499999999925e-02,2.646045199999999889e-02,2.388142999999999863e-02,2.069205799999999928e-02,1.700000000000000122e-02,1.454361900000000069e-02,1.081876600000000049e-02,6.974120000000000319e-03,4.320227000000000268e-03,1.023190999999999901e-03,-2.791506999999999929e-03,-5.583013999999999859e-03,-8.757410000000000194e-03,-1.133642999999999977e-02,-1.487590199999999988e-02,-1.765243600000000052e-02,-2.107210500000000070e-02,-2.354346300000000058e-02,-2.696030099999999902e-02,-3.010474299999999978e-02,-3.225594999999999851e-02,-3.477223900000000339e-02,-3.790170300000000186e-02,-4.049569799999999664e-02,-4.308969299999999836e-02,-4.534855799999999715e-02,-4.693434500000000231e-02,-4.960604200000000297e-02,-5.178720500000000282e-02,-5.436622199999999877e-02,-5.546429299999999785e-02,-5.787574399999999980e-02,-6.011962900000000082e-02,-6.182805200000000140e-02,-6.277353600000000478e-02,-6.515502900000000319e-02,-6.536753100000000649e-02,-6.729126000000000551e-02,-6.762639300000000686e-02,-6.886207599999999429e-02,-7.029807999999999890e-02,-7.019042999999999810e-02,-7.017545000000000033e-02,-7.016047100000000203e-02,-7.031305799999999773e-02,-7.003784200000000293e-02,-7.022038999999999365e-02,-7.118085799999999963e-02,-7.260187499999999627e-02,-7.017544900000000085e-02,-7.032803699999999603e-02,-7.019042999999999810e-02,-6.991521600000000225e-02,-7.016046800000000361e-02,-7.031305499999999931e-02,-7.034301799999999327e-02,-6.875721299999999758e-02,-6.761141699999999310e-02,-6.790161100000000061e-02,-6.662098099999999579e-02,-6.527765300000000492e-02,-6.504738799999999765e-02,-6.530761699999999836e-02,-6.391934400000000294e-02,-6.272860600000000619e-02,-6.275857099999999911e-02,-6.269863999999999993e-02,-6.282126200000000271e-02,-6.030218300000000226e-02,-6.042480499999999810e-02,-5.902154700000000059e-02,-5.809103599999999867e-02,-5.767822300000000069e-02,-5.783081100000000280e-02,-5.583218399999999998e-02,-5.552700800000000270e-02,-5.322320500000000260e-02,-5.293301400000000045e-02,-5.186489799999999956e-02,-5.065917999999999810e-02,-5.052157699999999807e-02,-4.950115399999999860e-02,-4.834039100000000339e-02,-4.821777299999999850e-02,-4.805020000000000124e-02,-4.666192300000000098e-02,-4.557882199999999800e-02,-4.589898299999999737e-02,-4.560879300000000164e-02,-4.589898299999999737e-02,-4.579135399999999939e-02,-4.437310299999999708e-02,-4.374776500000000096e-02,-4.344258899999999674e-02,-4.090854199999999913e-02,-4.084859400000000196e-02,-3.860473600000000061e-02,-3.842217400000000338e-02,-3.602572999999999886e-02,-3.601074199999999836e-02,-3.470011299999999771e-02,-3.340176000000000256e-02,-3.323418399999999995e-02,-3.138814100000000135e-02,-3.111294100000000160e-02,-2.996988399999999872e-02,-2.854892399999999983e-02,-2.854892399999999983e-02,-2.851894699999999935e-02,-2.612250699999999967e-02,-2.609252899999999972e-02,-2.609252899999999972e-02,-2.609252899999999972e-02,-2.620014799999999949e-02,-2.593994100000000108e-02,-2.621513699999999947e-02,-2.638271500000000103e-02,-2.609252899999999972e-02,-2.610751999999999864e-02,-2.596992199999999945e-02,-2.623012699999999892e-02,-2.507206699999999996e-02,-2.392631699999999903e-02,-2.394130800000000142e-02,-2.378871999999999931e-02,-2.238544599999999982e-02,-2.145492699999999864e-02,-2.105712900000000082e-02,-2.148490899999999995e-02,-2.137729699999999997e-02,-2.119472500000000106e-02,-2.122470900000000132e-02,-2.081192299999999953e-02,-2.148490800000000048e-02,-2.133231899999999889e-02,-1.994403499999999885e-02,-1.901351500000000166e-02,-1.863071599999999856e-02,-1.892089799999999850e-02,-1.893589199999999931e-02,-2.108711599999999950e-02,-2.120971699999999946e-02,-2.136230500000000157e-02,-2.120971699999999946e-02,-2.107212300000000163e-02,-2.133231600000000047e-02,-2.120971699999999946e-02,-2.131732100000000019e-02,-2.120971699999999946e-02,-1.887591400000000058e-02,-1.875331599999999904e-02,-2.004899400000000054e-02,-2.108711900000000139e-02,-2.134730899999999834e-02,-2.123970799999999950e-02,-2.145491000000000065e-02,-1.919608299999999920e-02,-1.895089000000000148e-02,-1.864571500000000021e-02,-1.864571500000000021e-02,-1.890590199999999874e-02,-1.892089799999999850e-02,-1.878330699999999909e-02,-1.893589500000000120e-02,-1.878330699999999909e-02,-1.890590099999999926e-02,-1.904349199999999867e-02,-1.892089799999999850e-02,-1.890590099999999926e-02,-1.732003099999999962e-02,-1.661708199999999830e-02,-1.629690799999999884e-02,-1.647949199999999836e-02,-1.621931100000000014e-02,-1.646449399999999966e-02,-1.618931499999999926e-02,-1.518379599999999940e-02,-1.359532100000000049e-02,-1.374790900000000086e-02,-1.365531799999999962e-02,-1.391549700000000063e-02,-1.416067499999999930e-02,-1.388549799999999959e-02,-1.562396400000000060e-02,-1.634190400000000085e-02,-1.618931599999999874e-02,-1.637190499999999910e-02,-1.658707900000000110e-02,-1.634190500000000032e-02,-1.637190599999999857e-02,-1.632690399999999972e-02,-1.646449100000000124e-02,-1.631190299999999913e-02,-1.618931800000000115e-02,-1.646449100000000124e-02,-1.649449399999999843e-02,-1.615931500000000048e-02,-1.445084500000000036e-02,-1.376291399999999936e-02,-1.402308399999999990e-02,-1.403808599999999997e-02,-1.385549399999999945e-02,-1.388549799999999959e-02,-1.388549799999999959e-02,-1.390050099999999914e-02,-1.403808599999999997e-02,-1.417567100000000080e-02,-1.420567699999999989e-02,-1.390050099999999914e-02,-1.402308300000000042e-02,-1.388549799999999959e-02,-1.388549799999999959e-02,-1.387049400000000057e-02,-1.361033000000000034e-02,-1.385548999999999982e-02,-1.359532700000000080e-02,-1.390050200000000034e-02,-1.403808599999999997e-02,-1.390050299999999982e-02,-1.387049299999999936e-02,-1.376291999999999967e-02,-1.400807599999999951e-02,-1.387049299999999936e-02,-1.397806400000000011e-02,-1.171925600000000081e-02,-1.144409199999999946e-02,-1.158167400000000014e-02,-1.138406800000000066e-02,-9.017692000000000763e-03,-9.002685999999999328e-03,-9.002685999999999328e-03,-8.987679000000000154e-03,-6.561278999999999723e-03,-6.713867000000000099e-03,-6.286116999999999920e-03,-6.271111000000000220e-03,-6.438705999999999770e-03,-6.683851999999999675e-03,-6.713867000000000099e-03,-6.468721999999999667e-03,-8.712518000000000692e-03,-9.002685999999999328e-03,-8.987676999999999472e-03,-8.880113999999999716e-03,-9.002685999999999328e-03,-8.835089000000000831e-03,-6.989025999999999746e-03,-6.806419999999999658e-03,-6.423700000000000070e-03,-6.561278999999999723e-03,-6.423701000000000411e-03,-6.453719999999999596e-03,-6.576288999999999919e-03,-5.433124999999999587e-03,-4.257450999999999770e-03,-3.967285000000000082e-03,-5.293059000000000132e-03,-6.698856999999999902e-03,-6.438712000000000081e-03,-6.423701999999999884e-03,-6.713867000000000099e-03,-6.698856000000000428e-03,-6.423701999999999884e-03,-6.453725000000000434e-03,-6.561278999999999723e-03,-6.683844000000000417e-03,-6.561278999999999723e-03,-6.561278999999999723e-03,-6.453727000000000248e-03,-6.408691000000000214e-03,-6.438715999999999710e-03,-6.546266999999999711e-03,-6.974005999999999608e-03,-6.698855000000000087e-03,-6.698853999999999746e-03,-6.438717000000000051e-03,-6.438717000000000051e-03,-6.561278999999999723e-03,-6.758906999999999762e-03,-8.697510000000000310e-03,-9.292847999999999387e-03,-7.751954999999999610e-03,-6.851440999999999781e-03,-6.561278999999999723e-03,-6.408691000000000214e-03,-6.591307999999999716e-03,-6.546264999999999896e-03,-5.418090999999999879e-03,-4.104858000000000291e-03,-3.967285000000000082e-03,-4.257445999999999800e-03,-4.089843000000000124e-03,-1.968627000000000137e-03,-1.816038999999999978e-03,-1.403322000000000033e-03,-1.540895000000000025e-03,-1.525878999999999951e-03,-1.678466999999999893e-03,-1.555911000000000100e-03,-1.938594000000000081e-03,-3.826810000000000042e-04,8.854940000000000163e-04,7.479229999999999472e-04,7.779560000000000034e-04,9.305439999999999458e-04,7.779570000000000192e-04,9.155269999999999641e-04,8.854919999999999848e-04,4.727810000000000259e-04,8.854919999999999848e-04,1.235720999999999955e-03,9.005089999999999666e-04,7.929760000000000324e-04,7.629390000000000217e-04,9.155269999999999641e-04,6.253699999999999841e-04,5.953329999999999733e-04,5.028199999999999597e-04,7.779580000000000349e-04,5.953319999999999576e-04,2.043720000000000172e-03,2.914189000000000189e-03,3.174306000000000003e-03,3.219365000000000074e-03,3.234386000000000119e-03,5.355595999999999794e-03,5.690813000000000295e-03,5.630732000000000272e-03,5.645752000000000409e-03,5.798339999999999918e-03,5.783319000000000307e-03,5.630730999999999931e-03,5.370617999999999746e-03,5.493164000000000033e-03,5.905864000000000252e-03,5.905862999999999911e-03,5.523206999999999596e-03,